# OpenSignals Text File Format. Version 1
# {"20:16:04:12:01:90": {"position": 0, "device": "bitalino_rev", "device name": "20:16:04:12:01:90", "device connection": "BTH20:16:04:12:01:90", "sampling rate": 100, "resolution": [4, 1, 1, 1, 1, 10, 10, 10, 10, 6, 6], "firmware version": 1281, "comments": "", "keywords": "", "mode": 0, "sync interval": 2, "date": "2025-5-21", "time": "18:52:48.446", "channels": [1, 2, 3, 4, 5, 6], "sensor": ["RAW", "RAW", "RAW", "RAW", "RAW", "RAW"], "label": ["A1", "A2", "A3", "A4", "A5", "A6"], "column": ["nSeq", "I1", "I2", "O1", "O2", "A1", "A2", "A3", "A4", "A5", "A6"], "special": [{}, {}, {}, {}, {}, {}], "digital IO": [0, 0, 1, 1]}}
# EndOfHeader
0	0	0	0	0	507	1022	0	517	40	4	
1	0	0	0	0	511	1022	0	531	40	4	
2	0	0	0	0	508	1022	0	531	39	4	
3	0	0	0	0	508	1023	0	508	39	4	
4	0	0	0	0	507	1022	0	516	40	4	
5	0	0	0	0	511	1022	0	483	39	4	
6	0	0	0	0	506	1022	0	485	39	4	
7	0	0	0	0	509	917	0	498	40	4	
8	0	0	0	0	507	655	0	493	40	4	
9	0	0	0	0	512	0	0	473	40	4	
10	0	0	0	0	508	0	0	486	39	4	
11	0	0	0	0	514	0	0	484	39	4	
12	0	0	0	0	504	0	0	507	40	4	
13	0	0	0	0	513	0	0	480	39	4	
14	0	0	0	0	506	0	0	478	39	4	
15	0	0	0	0	510	0	0	562	39	4	
0	0	0	0	0	505	0	0	570	40	4	
1	0	0	0	0	514	0	0	569	39	4	
2	0	0	0	0	511	0	0	542	39	4	
3	0	0	0	0	512	0	0	487	39	4	
4	0	0	0	0	505	125	0	490	40	4	
5	0	0	0	0	514	484	0	561	39	4	
6	0	0	0	0	507	1022	0	563	39	4	
7	0	0	0	0	519	1022	0	514	39	4	
8	0	0	0	0	504	1022	0	502	40	4	
9	0	0	0	0	517	1022	0	528	39	4	
10	0	0	0	0	507	1022	0	511	39	4	
11	0	0	0	0	515	1022	0	512	39	4	
12	0	0	0	0	505	1022	0	518	40	4	
13	0	0	0	0	516	1022	0	489	39	5	
14	0	0	0	0	507	1022	0	482	39	5	
15	0	0	0	0	519	1022	0	529	39	5	
0	0	0	0	0	503	1022	0	575	40	5	
1	0	0	0	0	519	894	0	533	39	5	
2	0	0	0	0	502	587	0	462	39	5	
3	0	0	0	0	519	0	0	461	39	5	
4	0	0	0	0	495	0	0	480	40	5	
5	0	0	0	0	523	0	0	542	39	5	
6	0	0	0	0	497	0	0	529	39	5	
7	0	0	0	0	520	0	0	487	39	5	
8	0	0	0	0	496	0	0	492	40	5	
9	0	0	0	0	519	0	0	544	39	5	
10	0	0	0	0	497	0	0	535	39	5	
11	0	0	0	0	519	0	0	523	40	5	
12	0	0	0	0	500	0	0	485	40	5	
13	0	0	0	0	519	0	0	507	39	5	
14	0	0	0	0	496	81	0	497	39	5	
15	0	0	0	0	519	295	0	463	39	5	
0	0	0	0	0	498	1022	0	459	40	5	
1	0	0	0	0	521	1022	0	543	39	5	
2	0	0	0	0	496	1022	0	497	39	5	
3	0	0	0	0	519	1022	0	502	39	5	
4	0	0	0	0	497	1022	0	439	40	5	
5	0	0	0	0	519	1022	0	435	39	5	
6	0	0	0	0	497	1022	0	457	39	5	
7	0	0	0	0	522	1022	0	478	39	5	
8	0	0	0	0	497	1022	0	525	40	5	
9	0	0	0	0	518	1022	0	493	39	5	
10	0	0	0	0	497	1022	0	503	39	5	
11	0	0	0	0	520	922	0	452	39	5	
12	0	0	0	0	497	688	0	463	40	5	
13	0	0	0	0	520	0	0	495	39	5	
14	0	0	0	0	496	0	0	486	39	5	
15	0	0	0	0	520	0	0	492	39	5	
0	0	0	0	0	498	0	0	495	40	5	
1	0	0	0	0	517	0	0	476	39	5	
2	0	0	0	0	496	0	0	520	39	5	
3	0	0	0	0	520	0	0	484	39	5	
4	0	0	0	0	496	0	0	480	40	5	
5	0	0	0	0	517	0	0	502	39	5	
6	0	0	0	0	498	0	0	483	39	5	
7	0	0	0	0	521	0	0	504	39	5	
8	0	0	0	0	498	83	0	505	40	5	
9	0	0	0	0	522	312	0	487	39	5	
10	0	0	0	0	498	1022	0	531	39	5	
11	0	0	0	0	519	1022	0	505	39	5	
12	0	0	0	0	497	1022	0	504	40	5	
13	0	0	0	0	520	1022	0	528	39	5	
14	0	0	0	0	498	1022	0	510	39	5	
15	0	0	0	0	524	1022	0	535	39	5	
0	0	0	0	0	497	1022	0	519	40	5	
1	0	0	0	0	519	1022	0	543	40	5	
2	0	0	0	0	499	1022	0	557	39	5	
3	0	0	0	0	521	1022	0	540	39	5	
4	0	0	0	0	497	1022	0	529	40	5	
5	0	0	0	0	521	910	0	536	39	5	
6	0	0	0	0	497	657	0	530	39	5	
7	0	0	0	0	522	0	0	546	39	5	
8	0	0	0	0	499	0	0	526	40	5	
9	0	0	0	0	520	0	0	521	39	5	
10	0	0	0	0	496	0	0	536	39	5	
11	0	0	0	0	521	0	0	514	39	5	
12	0	0	0	0	497	0	0	520	40	5	
13	0	0	0	0	521	0	0	506	39	5	
14	0	0	0	0	498	0	0	500	39	5	
15	0	0	0	0	518	0	0	513	39	5	
0	0	0	0	0	499	0	0	491	40	5	
1	0	0	0	0	520	0	0	536	39	5	
2	0	0	0	0	496	88	0	588	39	5	
3	0	0	0	0	521	312	0	574	40	5	
4	0	0	0	0	496	1022	0	534	40	5	
5	0	0	0	0	521	1022	0	478	39	5	
6	0	0	0	0	497	1022	0	487	39	5	
7	0	0	0	0	520	1022	0	505	39	5	
8	0	0	0	0	501	1022	0	540	40	5	
9	0	0	0	0	519	1022	0	547	39	5	
10	0	0	0	0	496	1022	0	473	39	4	
11	0	0	0	0	519	1022	0	467	40	4	
12	0	0	0	0	497	1022	0	500	40	5	
13	0	0	0	0	520	1022	0	478	39	4	
14	0	0	0	0	498	1022	0	508	39	5	
15	0	0	0	0	520	914	0	521	39	4	
0	0	0	0	0	497	674	0	542	40	5	
1	0	0	0	0	520	0	0	565	39	5	
2	0	0	0	0	499	0	0	543	39	5	
3	0	0	0	0	518	0	0	560	39	5	
4	0	0	0	0	496	0	0	534	40	5	
5	0	0	0	0	520	0	0	503	39	4	
6	0	0	0	0	496	0	0	531	39	5	
7	0	0	0	0	519	0	0	561	39	5	
8	0	0	0	0	499	0	0	584	40	5	
9	0	0	0	0	518	0	0	558	39	5	
10	0	0	0	0	498	0	0	548	39	5	
11	0	0	0	0	521	0	0	496	39	5	
12	0	0	0	0	498	83	0	503	40	5	
13	0	0	0	0	521	300	0	567	39	5	
14	0	0	0	0	498	1022	0	552	39	5	
15	0	0	0	0	517	1022	0	493	39	5	
0	0	0	0	0	498	1022	0	499	40	5	
1	0	0	0	0	519	1022	0	512	39	5	
2	0	0	0	0	498	1022	0	492	39	5	
3	0	0	0	0	520	1022	0	512	39	5	
4	0	0	0	0	495	1022	0	497	40	5	
5	0	0	0	0	517	1022	0	487	39	5	
6	0	0	0	0	499	1022	0	518	39	5	
7	0	0	0	0	523	1022	0	492	39	5	
8	0	0	0	0	499	1022	0	495	40	5	
9	0	0	0	0	522	950	0	489	39	5	
10	0	0	0	0	498	772	0	489	39	5	
11	0	0	0	0	519	0	0	507	39	5	
12	0	0	0	0	498	0	0	484	40	5	
13	0	0	0	0	519	0	0	486	39	5	
14	0	0	0	0	496	0	0	580	39	5	
15	0	0	0	0	519	0	0	572	39	5	
0	0	0	0	0	499	0	0	532	40	5	
1	0	0	0	0	516	0	0	534	39	5	
2	0	0	0	0	498	0	0	466	39	5	
3	0	0	0	0	517	0	0	457	39	5	
4	0	0	0	0	499	0	0	476	40	5	
5	0	0	0	0	520	0	0	466	39	5	
6	0	0	0	0	499	39	0	466	39	5	
7	0	0	0	0	519	155	0	502	39	5	
8	0	0	0	0	499	790	0	484	40	5	
9	0	0	0	0	518	1022	0	471	39	5	
10	0	0	0	0	499	1022	0	489	39	5	
11	0	0	0	0	516	1022	0	486	39	5	
12	0	0	0	0	501	1022	0	553	40	5	
13	0	0	0	0	517	1022	0	529	39	5	
14	0	0	0	0	499	1022	0	472	39	5	
15	0	0	0	0	518	1022	0	516	39	5	
0	0	0	0	0	503	1022	0	476	40	5	
1	0	0	0	0	515	1022	0	425	39	5	
2	0	0	0	0	502	1022	0	435	39	5	
3	0	0	0	0	518	1008	0	513	39	5	
4	0	0	0	0	502	902	0	531	40	5	
5	0	0	0	0	517	383	0	504	39	5	
6	0	0	0	0	504	0	0	444	39	5	
7	0	0	0	0	517	0	0	445	40	5	
8	0	0	0	0	503	0	0	468	40	5	
9	0	0	0	0	513	0	0	494	39	5	
10	0	0	0	0	504	0	0	539	39	5	
11	0	0	0	0	515	0	0	472	39	5	
12	0	0	0	0	503	0	0	480	40	5	
13	0	0	0	0	515	0	0	532	39	5	
14	0	0	0	0	505	0	0	574	39	5	
15	0	0	0	0	513	0	0	568	39	5	
0	0	0	0	0	505	0	0	501	40	5	
1	0	0	0	0	513	71	0	475	39	5	
2	0	0	0	0	508	504	0	527	39	5	
3	0	0	0	0	512	1022	0	498	39	5	
4	0	0	0	0	506	1022	0	478	40	5	
5	0	0	0	0	508	1022	0	488	39	5	
6	0	0	0	0	510	1022	0	480	39	5	
7	0	0	0	0	508	1022	0	478	39	5	
8	0	0	0	0	508	1022	0	497	40	5	
9	0	0	0	0	512	1022	0	473	39	5	
10	0	0	0	0	506	1022	0	545	39	5	
11	0	0	0	0	511	1022	0	530	39	5	
12	0	0	0	0	505	1022	0	476	40	5	
13	0	0	0	0	511	1022	0	472	39	5	
14	0	0	0	0	505	988	0	489	39	5	
15	0	0	0	0	510	688	0	478	40	5	
0	0	0	0	0	508	0	0	481	40	5	
1	0	0	0	0	509	0	0	510	39	5	
2	0	0	0	0	507	0	0	478	39	5	
3	0	0	0	0	507	0	0	477	39	5	
4	0	0	0	0	508	0	0	504	40	5	
5	0	0	0	0	506	0	0	491	39	5	
6	0	0	0	0	507	0	0	499	39	5	
7	0	0	0	0	508	0	0	497	40	5	
8	0	0	0	0	508	0	0	491	40	5	
9	0	0	0	0	509	0	0	524	39	5	
10	0	0	0	0	507	0	0	499	39	5	
11	0	0	0	0	509	0	0	488	39	5	
12	0	0	0	0	510	212	0	518	40	5	
13	0	0	0	0	508	816	0	494	40	5	
14	0	0	0	0	508	1022	0	515	39	5	
15	0	0	0	0	505	1022	0	497	39	5	
0	0	0	0	0	510	1022	0	493	40	5	
1	0	0	0	0	508	1022	0	524	39	4	
2	0	0	0	0	508	1022	0	499	39	4	
3	0	0	0	0	508	1022	0	526	39	4	
4	0	0	0	0	509	1022	0	543	40	4	
5	0	0	0	0	509	1022	0	540	39	4	
6	0	0	0	0	505	1022	0	557	39	4	
7	0	0	0	0	509	1022	0	536	39	4	
8	0	0	0	0	507	1022	0	527	40	4	
9	0	0	0	0	509	859	0	535	39	4	
10	0	0	0	0	511	382	0	520	39	4	
11	0	0	0	0	508	0	0	519	39	4	
12	0	0	0	0	507	0	0	511	40	4	
13	0	0	0	0	512	0	0	511	39	4	
14	0	0	0	0	508	0	0	520	39	4	
15	0	0	0	0	508	0	0	512	39	4	
0	0	0	0	0	509	0	0	524	40	4	
1	0	0	0	0	507	0	0	533	39	4	
2	0	0	0	0	509	0	0	572	39	4	
3	0	0	0	0	508	0	0	597	39	4	
4	0	0	0	0	508	0	0	586	40	4	
5	0	0	0	0	510	0	0	570	39	4	
6	0	0	0	0	508	131	0	582	39	4	
7	0	0	0	0	508	563	0	557	40	4	
8	0	0	0	0	507	1022	0	556	40	4	
9	0	0	0	0	510	1022	0	526	39	4	
10	0	0	0	0	507	1022	0	503	39	4	
11	0	0	0	0	507	1022	0	581	39	4	
12	0	0	0	0	507	1022	0	550	40	4	
13	0	0	0	0	508	1022	0	526	39	4	
14	0	0	0	0	508	1022	0	476	39	4	
15	0	0	0	0	510	1022	0	478	39	4	
0	0	0	0	0	505	1022	0	498	40	4	
1	0	0	0	0	507	1022	0	474	40	4	
2	0	0	0	0	507	1022	0	503	39	4	
3	0	0	0	0	508	945	0	472	39	4	
4	0	0	0	0	510	630	0	470	40	4	
5	0	0	0	0	507	0	0	568	39	4	
6	0	0	0	0	510	0	0	543	39	4	
7	0	0	0	0	508	0	0	472	39	4	
8	0	0	0	0	507	0	0	483	40	4	
9	0	0	0	0	509	0	0	480	39	4	
10	0	0	0	0	507	0	0	460	39	4	
11	0	0	0	0	510	0	0	556	39	4	
12	0	0	0	0	510	0	0	532	40	4	
13	0	0	0	0	507	0	0	495	39	4	
14	0	0	0	0	508	0	0	494	39	4	
15	0	0	0	0	508	0	0	527	39	4	
0	0	0	0	0	507	36	0	505	40	4	
1	0	0	0	0	507	246	0	498	39	4	
2	0	0	0	0	508	943	0	525	39	4	
3	0	0	0	0	510	1022	0	511	40	4	
4	0	0	0	0	507	1022	0	520	40	4	
5	0	0	0	0	506	1022	0	515	39	4	
6	0	0	0	0	510	1022	0	508	39	4	
7	0	0	0	0	507	1022	0	547	39	4	
8	0	0	0	0	508	1022	0	534	40	4	
9	0	0	0	0	510	1022	0	527	40	4	
10	0	0	0	0	507	1022	0	599	39	4	
11	0	0	0	0	508	1022	0	611	40	4	
12	0	0	0	0	504	1022	0	599	40	4	
13	0	0	0	0	507	1010	0	545	39	4	
14	0	0	0	0	509	846	0	533	39	4	
15	0	0	0	0	508	274	0	561	39	4	
0	0	0	0	0	505	0	0	499	40	4	
1	0	0	0	0	510	0	0	494	40	4	
2	0	0	0	0	510	0	0	509	39	4	
3	0	0	0	0	507	0	0	493	39	4	
4	0	0	0	0	508	0	0	555	40	4	
5	0	0	0	0	509	0	0	521	39	4	
6	0	0	0	0	509	0	0	512	39	4	
7	0	0	0	0	505	0	0	489	39	4	
8	0	0	0	0	508	0	0	517	40	4	
9	0	0	0	0	506	0	0	496	39	4	
10	0	0	0	0	506	0	0	504	39	4	
11	0	0	0	0	508	91	0	519	39	4	
12	0	0	0	0	510	478	0	595	40	4	
13	0	0	0	0	508	1022	0	524	39	4	
14	0	0	0	0	510	1022	0	582	39	4	
15	0	0	0	0	508	1022	0	577	39	4	
0	0	0	0	0	506	1022	0	505	40	4	
1	0	0	0	0	508	1022	0	475	39	4	
2	0	0	0	0	510	1022	0	512	39	4	
3	0	0	0	0	508	1022	0	551	39	4	
4	0	0	0	0	509	1022	0	513	40	4	
5	0	0	0	0	508	1022	0	461	39	4	
6	0	0	0	0	507	1022	0	466	39	4	
7	0	0	0	0	506	1022	0	498	39	4	
8	0	0	0	0	508	987	0	539	40	4	
9	0	0	0	0	507	739	0	535	39	4	
10	0	0	0	0	506	19	0	484	39	4	
11	0	0	0	0	510	0	0	498	39	4	
12	0	0	0	0	507	0	0	571	40	4	
13	0	0	0	0	507	0	0	577	39	4	
14	0	0	0	0	507	0	0	574	39	4	
15	0	0	0	0	510	0	0	515	39	4	
0	0	0	0	0	508	0	0	514	40	4	
1	0	0	0	0	508	0	0	600	39	4	
2	0	0	0	0	505	0	0	555	39	4	
3	0	0	0	0	506	0	0	544	39	4	
4	0	0	0	0	507	0	0	548	40	4	
5	0	0	0	0	510	0	0	507	39	4	
6	0	0	0	0	505	173	0	507	39	4	
7	0	0	0	0	508	681	0	510	39	4	
8	0	0	0	0	507	1022	0	498	40	4	
9	0	0	0	0	510	1022	0	504	39	4	
10	0	0	0	0	505	1022	0	466	39	4	
11	0	0	0	0	507	1022	0	465	39	4	
12	0	0	0	0	509	1022	0	460	40	4	
13	0	0	0	0	508	1022	0	443	39	4	
14	0	0	0	0	508	1022	0	448	39	4	
15	0	0	0	0	508	1022	0	458	39	4	
0	0	0	0	0	508	1022	0	444	40	4	
1	0	0	0	0	510	1022	0	475	39	4	
2	0	0	0	0	507	1022	0	459	39	4	
3	0	0	0	0	508	868	0	460	39	4	
4	0	0	0	0	507	376	0	505	40	4	
5	0	0	0	0	508	0	0	493	39	4	
6	0	0	0	0	509	0	0	530	39	4	
7	0	0	0	0	509	0	0	513	39	4	
8	0	0	0	0	505	0	0	497	40	4	
9	0	0	0	0	510	0	0	537	39	4	
10	0	0	0	0	507	0	0	505	39	4	
11	0	0	0	0	508	0	0	526	39	4	
12	0	0	0	0	505	0	0	532	40	4	
13	0	0	0	0	509	0	0	523	39	4	
14	0	0	0	0	509	0	0	545	39	4	
15	0	0	0	0	507	0	0	515	39	4	
0	0	0	0	0	509	50	0	492	40	4	
1	0	0	0	0	507	305	0	497	39	4	
2	0	0	0	0	507	1022	0	494	39	4	
3	0	0	0	0	508	1022	0	493	39	4	
4	0	0	0	0	507	1022	0	492	40	4	
5	0	0	0	0	507	1022	0	483	39	4	
6	0	0	0	0	508	1022	0	502	39	4	
7	0	0	0	0	510	1022	0	480	39	4	
8	0	0	0	0	510	1022	0	512	40	4	
9	0	0	0	0	510	1022	0	547	39	4	
10	0	0	0	0	508	1022	0	589	39	4	
11	0	0	0	0	509	1022	0	558	39	4	
12	0	0	0	0	503	1022	0	500	40	4	
13	0	0	0	0	509	885	0	477	39	4	
14	0	0	0	0	509	427	0	478	39	4	
15	0	0	0	0	508	0	0	493	39	4	
0	0	0	0	0	508	0	0	484	40	4	
1	0	0	0	0	507	0	0	489	39	4	
2	0	0	0	0	506	0	0	473	39	4	
3	0	0	0	0	511	0	0	473	39	4	
4	0	0	0	0	510	0	0	554	40	4	
5	0	0	0	0	508	0	0	563	40	4	
6	0	0	0	0	510	0	0	528	39	4	
7	0	0	0	0	507	0	0	497	39	4	
8	0	0	0	0	506	0	0	478	40	4	
9	0	0	0	0	510	0	0	495	39	4	
10	0	0	0	0	508	0	0	484	39	4	
11	0	0	0	0	509	128	0	479	39	4	
12	0	0	0	0	509	583	0	498	40	4	
13	0	0	0	0	507	1022	0	483	39	4	
14	0	0	0	0	507	1022	0	482	39	4	
15	0	0	0	0	508	1022	0	569	39	4	
0	0	0	0	0	506	1022	0	564	40	4	
1	0	0	0	0	508	1022	0	518	39	4	
2	0	0	0	0	509	1022	0	480	39	4	
3	0	0	0	0	509	1022	0	471	39	4	
4	0	0	0	0	505	1022	0	483	40	4	
5	0	0	0	0	509	1022	0	552	40	4	
6	0	0	0	0	506	1022	0	556	39	4	
7	0	0	0	0	509	1022	0	504	39	4	
8	0	0	0	0	508	941	0	515	40	4	
9	0	0	0	0	508	617	0	528	39	4	
10	0	0	0	0	510	0	0	563	39	4	
11	0	0	0	0	511	0	0	524	39	4	
12	0	0	0	0	506	0	0	532	40	4	
13	0	0	0	0	510	0	0	555	39	4	
14	0	0	0	0	506	0	0	505	39	4	
15	0	0	0	0	509	0	0	490	40	4	
0	0	0	0	0	506	0	0	523	40	4	
1	0	0	0	0	508	0	0	505	39	4	
2	0	0	0	0	510	0	0	516	39	4	
3	0	0	0	0	507	0	0	511	39	4	
4	0	0	0	0	505	0	0	497	40	4	
5	0	0	0	0	510	142	0	529	39	4	
6	0	0	0	0	508	639	0	514	39	4	
7	0	0	0	0	514	1022	0	512	39	4	
8	0	0	0	0	508	1022	0	533	40	4	
9	0	0	0	0	507	1022	0	516	39	4	
10	0	0	0	0	506	1022	0	540	39	4	
11	0	0	0	0	507	1022	0	574	39	4	
12	0	0	0	0	510	1022	0	587	40	4	
13	0	0	0	0	508	1022	0	563	39	4	
14	0	0	0	0	510	1022	0	481	39	4	
15	0	0	0	0	507	1022	0	450	39	4	
0	0	0	0	0	507	1022	0	460	40	4	
1	0	0	0	0	510	1022	0	445	39	4	
2	0	0	0	0	507	931	0	476	39	4	
3	0	0	0	0	509	599	0	541	39	4	
4	0	0	0	0	508	0	0	482	40	4	
5	0	0	0	0	507	0	0	455	39	4	
6	0	0	0	0	508	0	0	455	39	4	
7	0	0	0	0	507	0	0	462	39	4	
8	0	0	0	0	507	0	0	468	40	4	
9	0	0	0	0	510	0	0	487	39	4	
10	0	0	0	0	508	0	0	552	39	4	
11	0	0	0	0	508	0	0	548	39	4	
12	0	0	0	0	508	0	0	515	40	4	
13	0	0	0	0	508	0	0	528	39	4	
14	0	0	0	0	505	0	0	537	39	4	
15	0	0	0	0	507	0	0	485	40	4	
0	0	0	0	0	509	110	0	495	40	4	
1	0	0	0	0	508	482	0	570	39	4	
2	0	0	0	0	508	1022	0	531	39	4	
3	0	0	0	0	508	1022	0	487	39	4	
4	0	0	0	0	504	1022	0	490	40	4	
5	0	0	0	0	510	1022	0	524	39	4	
6	0	0	0	0	508	1022	0	531	39	4	
7	0	0	0	0	508	1022	0	532	39	4	
8	0	0	0	0	508	1022	0	511	40	4	
9	0	0	0	0	508	1022	0	480	39	4	
10	0	0	0	0	507	1022	0	493	39	4	
11	0	0	0	0	508	1022	0	583	39	4	
12	0	0	0	0	508	977	0	563	40	4	
13	0	0	0	0	511	708	0	492	39	4	
14	0	0	0	0	507	0	0	495	39	4	
15	0	0	0	0	508	0	0	499	39	4	
0	0	0	0	0	507	0	0	493	40	4	
1	0	0	0	0	507	0	0	590	39	4	
2	0	0	0	0	509	0	0	572	39	4	
3	0	0	0	0	508	0	0	556	39	4	
4	0	0	0	0	506	0	0	493	40	4	
5	0	0	0	0	508	0	0	498	39	4	
6	0	0	0	0	508	0	0	510	39	4	
7	0	0	0	0	508	0	0	492	40	4	
8	0	0	0	0	508	0	0	519	40	4	
9	0	0	0	0	508	0	0	495	39	4	
10	0	0	0	0	507	144	0	532	39	4	
11	0	0	0	0	510	604	0	483	39	4	
12	0	0	0	0	507	1022	0	463	40	4	
13	0	0	0	0	505	1022	0	466	40	4	
14	0	0	0	0	511	1022	0	441	39	4	
15	0	0	0	0	510	1022	0	479	39	4	
0	0	0	0	0	506	1022	0	467	40	4	
1	0	0	0	0	507	1022	0	475	39	4	
2	0	0	0	0	508	1022	0	508	39	4	
3	0	0	0	0	507	1022	0	477	39	4	
4	0	0	0	0	507	1022	0	488	40	4	
5	0	0	0	0	507	1022	0	481	39	4	
6	0	0	0	0	509	1022	0	470	39	4	
7	0	0	0	0	510	869	0	524	40	4	
8	0	0	0	0	508	396	0	499	40	4	
9	0	0	0	0	503	0	0	479	39	4	
10	0	0	0	0	506	0	0	499	39	4	
11	0	0	0	0	508	0	0	483	39	4	
12	0	0	0	0	508	0	0	530	40	4	
13	0	0	0	0	508	0	0	530	39	4	
14	0	0	0	0	508	0	0	524	39	4	
15	0	0	0	0	508	0	0	525	39	4	
0	0	0	0	0	508	0	0	495	40	4	
1	0	0	0	0	508	0	0	483	39	4	
2	0	0	0	0	508	0	0	484	39	4	
3	0	0	0	0	509	33	0	479	39	4	
4	0	0	0	0	508	294	0	501	40	4	
5	0	0	0	0	509	1022	0	478	40	4	
6	0	0	0	0	510	1022	0	476	39	4	
7	0	0	0	0	510	1022	0	505	40	4	
8	0	0	0	0	508	1022	0	576	40	4	
9	0	0	0	0	510	1022	0	563	39	4	
10	0	0	0	0	507	1022	0	500	39	4	
11	0	0	0	0	506	1022	0	460	39	4	
12	0	0	0	0	506	1022	0	460	40	4	
13	0	0	0	0	507	1022	0	484	39	4	
14	0	0	0	0	507	1022	0	465	39	4	
15	0	0	0	0	505	1022	0	463	39	4	
0	0	0	0	0	505	1022	0	487	40	4	
1	0	0	0	0	511	887	0	451	40	4	
2	0	0	0	0	508	431	0	474	39	4	
3	0	0	0	0	509	0	0	550	39	4	
4	0	0	0	0	508	0	0	529	40	4	
5	0	0	0	0	507	0	0	536	39	4	
6	0	0	0	0	507	0	0	469	39	4	
7	0	0	0	0	508	0	0	456	39	4	
8	0	0	0	0	505	0	0	468	40	4	
9	0	0	0	0	511	0	0	516	39	4	
10	0	0	0	0	508	0	0	502	39	4	
11	0	0	0	0	509	0	0	508	39	4	
12	0	0	0	0	506	0	0	459	40	4	
13	0	0	0	0	509	15	0	468	39	4	
14	0	0	0	0	508	225	0	565	39	4	
15	0	0	0	0	510	904	0	540	39	4	
0	0	0	0	0	508	1022	0	527	40	4	
1	0	0	0	0	506	1022	0	563	39	4	
2	0	0	0	0	509	1022	0	553	39	4	
3	0	0	0	0	509	1022	0	514	39	4	
4	0	0	0	0	509	1022	0	495	40	4	
5	0	0	0	0	509	1023	0	489	39	4	
6	0	0	0	0	510	1022	0	579	39	4	
7	0	0	0	0	509	1022	0	546	39	4	
8	0	0	0	0	508	1022	0	526	40	4	
9	0	0	0	0	505	1022	0	482	40	4	
10	0	0	0	0	507	1022	0	489	39	4	
11	0	0	0	0	508	865	0	511	39	4	
12	0	0	0	0	509	369	0	534	40	4	
13	0	0	0	0	508	0	0	545	39	4	
14	0	0	0	0	509	0	0	482	39	4	
15	0	0	0	0	509	0	0	479	39	4	
0	0	0	0	0	507	0	0	494	40	4	
1	0	0	0	0	508	0	0	488	39	4	
2	0	0	0	0	510	0	0	523	39	4	
3	0	0	0	0	508	0	0	495	40	4	
4	0	0	0	0	510	0	0	496	40	4	
5	0	0	0	0	507	0	0	519	39	4	
6	0	0	0	0	507	0	0	502	39	4	
7	0	0	0	0	510	0	0	511	39	4	
8	0	0	0	0	509	177	0	531	40	4	
9	0	0	0	0	507	757	0	532	39	4	
10	0	0	0	0	510	1022	0	555	39	4	
11	0	0	0	0	508	1022	0	522	39	4	
12	0	0	0	0	506	1022	0	519	40	4	
13	0	0	0	0	507	1022	0	550	39	4	
14	0	0	0	0	510	1022	0	510	39	4	
15	0	0	0	0	507	1022	0	530	39	4	
0	0	0	0	0	507	1022	0	507	40	4	
1	0	0	0	0	508	1022	0	595	39	4	
2	0	0	0	0	509	1022	0	639	39	4	
3	0	0	0	0	504	1022	0	570	39	4	
4	0	0	0	0	510	1020	0	554	40	4	
5	0	0	0	0	506	832	0	498	39	4	
6	0	0	0	0	508	258	0	478	39	4	
7	0	0	0	0	508	0	0	494	39	4	
8	0	0	0	0	508	0	0	559	40	4	
9	0	0	0	0	508	0	0	517	39	4	
10	0	0	0	0	508	0	0	534	39	4	
11	0	0	0	0	512	0	0	505	39	4	
12	0	0	0	0	507	0	0	523	40	4	
13	0	0	0	0	505	0	0	500	39	4	
14	0	0	0	0	508	0	0	470	39	4	
15	0	0	0	0	507	0	0	465	39	4	
0	0	0	0	0	507	0	0	482	40	4	
1	0	0	0	0	506	46	0	478	39	4	
2	0	0	0	0	505	338	0	514	39	4	
3	0	0	0	0	506	1022	0	488	39	4	
4	0	0	0	0	506	1022	0	547	40	4	
5	0	0	0	0	510	1022	0	531	39	4	
6	0	0	0	0	507	1022	0	484	39	4	
7	0	0	0	0	508	1022	0	509	39	4	
8	0	0	0	0	507	1022	0	551	40	4	
9	0	0	0	0	509	1022	0	541	39	4	
10	0	0	0	0	507	1022	0	529	39	4	
11	0	0	0	0	508	1022	0	477	39	4	
12	0	0	0	0	508	1022	0	468	40	4	
13	0	0	0	0	507	1022	0	560	39	4	
14	0	0	0	0	510	1020	0	526	39	4	
15	0	0	0	0	510	818	0	500	39	4	
0	0	0	0	0	508	208	0	526	40	4	
1	0	0	0	0	505	0	0	552	39	4	
2	0	0	0	0	512	0	0	532	39	4	
3	0	0	0	0	510	0	0	473	39	4	
4	0	0	0	0	508	0	0	475	40	4	
5	0	0	0	0	507	0	0	561	39	4	
6	0	0	0	0	506	0	0	529	39	4	
7	0	0	0	0	510	0	0	518	39	4	
8	0	0	0	0	506	0	0	510	40	4	
9	0	0	0	0	507	0	0	546	39	4	
10	0	0	0	0	508	0	0	474	39	4	
11	0	0	0	0	505	0	0	533	39	4	
12	0	0	0	0	510	179	0	490	40	4	
13	0	0	0	0	508	770	0	460	39	4	
14	0	0	0	0	509	1022	0	465	39	4	
15	0	0	0	0	508	1022	0	468	39	4	
0	0	0	0	0	507	1022	0	469	40	4	
1	0	0	0	0	505	1022	0	494	39	4	
2	0	0	0	0	510	1022	0	480	39	4	
3	0	0	0	0	506	1022	0	489	39	4	
4	0	0	0	0	510	1022	0	512	40	4	
5	0	0	0	0	508	1022	0	496	40	4	
6	0	0	0	0	507	1022	0	501	39	4	
7	0	0	0	0	508	1022	0	518	40	4	
8	0	0	0	0	508	1022	0	507	40	4	
9	0	0	0	0	507	855	0	531	39	4	
10	0	0	0	0	511	318	0	506	39	4	
11	0	0	0	0	507	0	0	504	40	4	
12	0	0	0	0	509	0	0	545	40	4	
13	0	0	0	0	505	0	0	519	39	4	
14	0	0	0	0	510	0	0	536	39	4	
15	0	0	0	0	505	0	0	526	40	4	
0	0	0	0	0	507	0	0	508	40	4	
1	0	0	0	0	507	0	0	545	39	4	
2	0	0	0	0	507	0	0	515	39	4	
3	0	0	0	0	506	0	0	535	39	4	
4	0	0	0	0	508	0	0	544	40	4	
5	0	0	0	0	508	0	0	536	39	4	
6	0	0	0	0	508	122	0	554	39	4	
7	0	0	0	0	508	524	0	532	39	4	
8	0	0	0	0	506	1022	0	532	40	4	
9	0	0	0	0	506	1022	0	535	40	4	
10	0	0	0	0	507	1022	0	517	39	4	
11	0	0	0	0	508	1022	0	584	39	4	
12	0	0	0	0	510	1022	0	583	40	4	
13	0	0	0	0	508	1022	0	538	39	4	
14	0	0	0	0	510	1022	0	541	39	4	
15	0	0	0	0	506	1022	0	500	39	4	
0	0	0	0	0	507	1022	0	486	40	4	
1	0	0	0	0	505	1022	0	511	39	4	
2	0	0	0	0	509	1022	0	497	39	4	
3	0	0	0	0	508	907	0	488	39	4	
4	0	0	0	0	504	485	0	519	40	4	
5	0	0	0	0	506	0	0	528	39	4	
6	0	0	0	0	510	0	0	632	39	4	
7	0	0	0	0	508	0	0	578	39	4	
8	0	0	0	0	509	0	0	568	40	4	
9	0	0	0	0	509	0	0	490	39	4	
10	0	0	0	0	508	0	0	472	39	4	
11	0	0	0	0	507	0	0	491	39	4	
12	0	0	0	0	507	0	0	526	40	4	
13	0	0	0	0	507	0	0	528	39	4	
14	0	0	0	0	511	0	0	494	39	4	
15	0	0	0	0	509	0	0	462	39	4	
0	0	0	0	0	508	53	0	472	40	4	
1	0	0	0	0	510	339	0	476	39	4	
2	0	0	0	0	509	1022	0	470	39	4	
3	0	0	0	0	508	1022	0	499	39	4	
4	0	0	0	0	505	1022	0	472	40	4	
5	0	0	0	0	507	1022	0	487	39	4	
6	0	0	0	0	510	1022	0	552	39	4	
7	0	0	0	0	507	1022	0	527	39	4	
8	0	0	0	0	511	1022	0	534	40	4	
9	0	0	0	0	510	1022	0	466	39	4	
10	0	0	0	0	510	1022	0	472	39	4	
11	0	0	0	0	508	1022	0	509	39	4	
12	0	0	0	0	509	1022	0	494	40	4	
13	0	0	0	0	507	978	0	491	39	4	
14	0	0	0	0	509	728	0	507	39	4	
15	0	0	0	0	507	0	0	512	39	4	
0	0	0	0	0	507	0	0	536	40	4	
1	0	0	0	0	508	0	0	509	39	4	
2	0	0	0	0	505	0	0	505	39	4	
3	0	0	0	0	508	0	0	514	39	4	
4	0	0	0	0	510	0	0	498	40	4	
5	0	0	0	0	510	0	0	504	39	4	
6	0	0	0	0	509	0	0	515	39	4	
7	0	0	0	0	508	0	0	506	39	4	
8	0	0	0	0	506	0	0	542	40	4	
9	0	0	0	0	508	0	0	507	39	4	
10	0	0	0	0	507	4	0	505	39	4	
11	0	0	0	0	506	177	0	587	39	4	
12	0	0	0	0	508	713	0	570	40	4	
13	0	0	0	0	507	1022	0	599	39	4	
14	0	0	0	0	511	1022	0	517	39	4	
15	0	0	0	0	507	1022	0	515	39	4	
0	0	0	0	0	507	1022	0	593	40	4	
1	0	0	0	0	508	1022	0	511	39	4	
2	0	0	0	0	508	1022	0	478	39	4	
3	0	0	0	0	507	1022	0	485	39	4	
4	0	0	0	0	509	1022	0	483	40	4	
5	0	0	0	0	508	1022	0	487	39	4	
6	0	0	0	0	508	1022	0	532	39	4	
7	0	0	0	0	508	1022	0	515	40	4	
8	0	0	0	0	510	907	0	542	40	4	
9	0	0	0	0	509	495	0	487	39	4	
10	0	0	0	0	508	0	0	490	39	4	
11	0	0	0	0	509	0	0	537	39	4	
12	0	0	0	0	509	0	0	542	40	4	
13	0	0	0	0	509	0	0	532	39	4	
14	0	0	0	0	510	0	0	563	39	4	
15	0	0	0	0	508	0	0	503	39	4	
0	0	0	0	0	508	0	0	504	40	4	
1	0	0	0	0	508	0	0	511	39	4	
2	0	0	0	0	507	0	0	559	39	4	
3	0	0	0	0	505	0	0	507	39	4	
4	0	0	0	0	510	0	0	551	40	4	
5	0	0	0	0	508	73	0	578	39	4	
6	0	0	0	0	511	367	0	496	39	4	
7	0	0	0	0	507	1022	0	485	39	4	
8	0	0	0	0	507	1022	0	518	40	4	
9	0	0	0	0	505	1022	0	552	39	4	
10	0	0	0	0	512	1022	0	521	39	4	
11	0	0	0	0	506	1022	0	476	39	4	
12	0	0	0	0	509	1022	0	481	40	4	
13	0	0	0	0	507	1022	0	521	39	4	
14	0	0	0	0	505	1022	0	558	39	4	
15	0	0	0	0	505	1022	0	527	39	4	
0	0	0	0	0	508	1022	0	472	40	4	
1	0	0	0	0	508	1022	0	464	39	4	
2	0	0	0	0	509	961	0	519	39	4	
3	0	0	0	0	507	662	0	541	40	4	
4	0	0	0	0	506	0	0	531	40	4	
5	0	0	0	0	506	0	0	478	39	4	
6	0	0	0	0	511	0	0	472	39	4	
7	0	0	0	0	508	0	0	484	39	4	
8	0	0	0	0	508	0	0	492	40	4	
9	0	0	0	0	510	0	0	556	40	4	
10	0	0	0	0	508	0	0	548	39	4	
11	0	0	0	0	508	0	0	532	39	4	
12	0	0	0	0	508	0	0	520	40	4	
13	0	0	0	0	507	0	0	470	39	4	
14	0	0	0	0	506	0	0	463	39	4	
15	0	0	0	0	505	34	0	476	39	4	
0	0	0	0	0	507	255	0	465	40	4	
1	0	0	0	0	508	939	0	469	39	4	
2	0	0	0	0	506	1022	0	486	39	4	
3	0	0	0	0	508	1022	0	466	39	4	
4	0	0	0	0	508	1022	0	504	40	4	
5	0	0	0	0	505	1022	0	483	39	4	
6	0	0	0	0	508	1022	0	492	39	4	
7	0	0	0	0	506	1022	0	499	40	4	
8	0	0	0	0	510	1022	0	489	40	4	
9	0	0	0	0	504	1022	0	505	39	4	
10	0	0	0	0	509	1022	0	487	39	4	
11	0	0	0	0	507	1022	0	488	39	4	
12	0	0	0	0	507	1016	0	527	40	4	
13	0	0	0	0	509	809	0	508	39	4	
14	0	0	0	0	510	199	0	513	39	4	
15	0	0	0	0	506	0	0	531	39	4	
0	0	0	0	0	507	0	0	515	40	4	
1	0	0	0	0	509	0	0	528	39	4	
2	0	0	0	0	508	0	0	502	39	4	
3	0	0	0	0	509	0	0	524	39	4	
4	0	0	0	0	504	0	0	544	40	4	
5	0	0	0	0	508	0	0	533	39	4	
6	0	0	0	0	510	0	0	535	39	4	
7	0	0	0	0	511	0	0	540	39	4	
8	0	0	0	0	509	0	0	539	40	4	
9	0	0	0	0	507	0	0	558	39	4	
10	0	0	0	0	510	161	0	543	39	4	
11	0	0	0	0	506	662	0	514	40	4	
12	0	0	0	0	508	1022	0	541	40	4	
13	0	0	0	0	505	1023	0	521	39	4	
14	0	0	0	0	508	1022	0	545	39	4	
15	0	0	0	0	509	1022	0	548	39	4	
0	0	0	0	0	510	1022	0	559	40	4	
1	0	0	0	0	507	1022	0	562	39	4	
2	0	0	0	0	508	1022	0	519	39	4	
3	0	0	0	0	505	1022	0	520	39	4	
4	0	0	0	0	510	1022	0	548	40	4	
5	0	0	0	0	507	1022	0	553	39	4	
6	0	0	0	0	508	1022	0	548	39	4	
7	0	0	0	0	505	863	0	541	39	4	
8	0	0	0	0	506	353	0	535	40	4	
9	0	0	0	0	508	0	0	517	39	4	
10	0	0	0	0	509	0	0	556	39	4	
11	0	0	0	0	505	0	0	525	39	4	
12	0	0	0	0	510	0	0	468	40	4	
13	0	0	0	0	507	0	0	467	39	4	
14	0	0	0	0	508	0	0	476	39	4	
15	0	0	0	0	507	0	0	462	39	4	
0	0	0	0	0	506	0	0	471	40	4	
1	0	0	0	0	508	0	0	452	39	4	
2	0	0	0	0	509	0	0	457	39	4	
3	0	0	0	0	505	0	0	531	39	4	
4	0	0	0	0	509	101	0	558	40	4	
5	0	0	0	0	506	485	0	527	39	4	
6	0	0	0	0	510	1022	0	482	39	4	
7	0	0	0	0	508	1022	0	479	40	4	
8	0	0	0	0	507	1022	0	511	40	4	
9	0	0	0	0	506	1022	0	559	39	4	
10	0	0	0	0	510	1022	0	546	39	4	
11	0	0	0	0	507	1022	0	527	39	4	
12	0	0	0	0	509	1022	0	526	40	4	
13	0	0	0	0	506	1022	0	468	39	4	
14	0	0	0	0	508	1022	0	466	39	4	
15	0	0	0	0	510	1022	0	480	39	4	
0	0	0	0	0	511	1022	0	476	40	4	
1	0	0	0	0	506	926	0	491	39	4	
2	0	0	0	0	509	561	0	467	39	4	
3	0	0	0	0	509	0	0	465	40	4	
4	0	0	0	0	510	0	0	486	40	4	
5	0	0	0	0	505	0	0	474	39	4	
6	0	0	0	0	508	0	0	483	39	4	
7	0	0	0	0	507	0	0	500	39	4	
8	0	0	0	0	508	0	0	481	40	4	
9	0	0	0	0	508	0	0	502	39	4	
10	0	0	0	0	512	0	0	489	39	4	
11	0	0	0	0	504	0	0	489	39	4	
12	0	0	0	0	508	0	0	526	40	4	
13	0	0	0	0	508	0	0	515	39	4	
14	0	0	0	0	510	65	0	590	39	4	
15	0	0	0	0	507	364	0	603	40	4	
0	0	0	0	0	509	1022	0	583	40	4	
1	0	0	0	0	505	1022	0	578	39	4	
2	0	0	0	0	505	1022	0	558	39	4	
3	0	0	0	0	505	1022	0	536	40	4	
4	0	0	0	0	508	1022	0	483	40	4	
5	0	0	0	0	507	1022	0	480	39	4	
6	0	0	0	0	508	1022	0	492	39	4	
7	0	0	0	0	507	1022	0	470	39	4	
8	0	0	0	0	509	1022	0	476	40	4	
9	0	0	0	0	507	1022	0	479	39	4	
10	0	0	0	0	506	1022	0	455	39	4	
11	0	0	0	0	510	971	0	490	39	4	
12	0	0	0	0	505	697	0	490	40	4	
13	0	0	0	0	507	0	0	589	39	4	
14	0	0	0	0	510	0	0	540	39	4	
15	0	0	0	0	510	0	0	491	39	4	
0	0	0	0	0	508	0	0	482	40	4	
1	0	0	0	0	506	0	0	520	40	4	
2	0	0	0	0	506	0	0	560	39	4	
3	0	0	0	0	506	0	0	539	39	4	
4	0	0	0	0	506	0	0	491	40	4	
5	0	0	0	0	506	0	0	496	39	4	
6	0	0	0	0	509	0	0	578	39	4	
7	0	0	0	0	509	0	0	538	40	4	
8	0	0	0	0	511	32	0	487	40	4	
9	0	0	0	0	506	239	0	480	39	4	
10	0	0	0	0	511	894	0	525	39	4	
11	0	0	0	0	508	1022	0	492	39	4	
12	0	0	0	0	511	1022	0	576	40	4	
13	0	0	0	0	511	1022	0	567	40	4	
14	0	0	0	0	508	1022	0	570	39	4	
15	0	0	0	0	507	1022	0	508	40	4	
0	0	0	0	0	508	1022	0	496	40	4	
1	0	0	0	0	507	1022	0	515	39	4	
2	0	0	0	0	505	1022	0	498	39	4	
3	0	0	0	0	507	1022	0	507	39	4	
4	0	0	0	0	510	1022	0	524	40	4	
5	0	0	0	0	506	1014	0	527	40	4	
6	0	0	0	0	507	848	0	570	39	4	
7	0	0	0	0	509	306	0	559	40	4	
8	0	0	0	0	509	0	0	555	40	4	
9	0	0	0	0	505	0	0	472	39	4	
10	0	0	0	0	511	0	0	461	39	4	
11	0	0	0	0	508	0	0	479	39	4	
12	0	0	0	0	510	0	0	465	40	4	
13	0	0	0	0	507	0	0	491	39	4	
14	0	0	0	0	512	0	0	470	39	4	
15	0	0	0	0	507	0	0	477	39	4	
0	0	0	0	0	509	0	0	508	40	4	
1	0	0	0	0	508	0	0	492	39	4	
2	0	0	0	0	508	0	0	499	39	4	
3	0	0	0	0	508	119	0	525	39	4	
4	0	0	0	0	507	534	0	529	40	4	
5	0	0	0	0	509	1022	0	553	40	4	
6	0	0	0	0	511	1022	0	515	39	4	
7	0	0	0	0	507	1022	0	511	39	4	
8	0	0	0	0	507	1022	0	546	40	4	
9	0	0	0	0	509	1022	0	508	39	4	
10	0	0	0	0	506	1023	0	536	39	4	
11	0	0	0	0	510	1022	0	518	39	4	
12	0	0	0	0	507	1022	0	504	40	4	
13	0	0	0	0	508	1022	0	543	39	4	
14	0	0	0	0	508	1022	0	511	39	4	
15	0	0	0	0	507	1022	0	536	39	4	
0	0	0	0	0	506	951	0	550	40	4	
1	0	0	0	0	506	637	0	540	39	4	
2	0	0	0	0	510	0	0	554	39	4	
3	0	0	0	0	507	0	0	529	40	4	
4	0	0	0	0	508	0	0	515	40	4	
5	0	0	0	0	506	0	0	518	39	4	
6	0	0	0	0	511	0	0	496	39	4	
7	0	0	0	0	505	0	0	498	39	4	
8	0	0	0	0	508	0	0	484	40	4	
9	0	0	0	0	506	0	0	543	39	4	
10	0	0	0	0	510	0	0	531	39	4	
11	0	0	0	0	508	0	0	538	39	4	
12	0	0	0	0	508	0	0	511	40	4	
13	0	0	0	0	504	52	0	501	39	4	
14	0	0	0	0	507	334	0	456	39	4	
15	0	0	0	0	508	1022	0	460	39	4	
0	0	0	0	0	509	1022	0	479	40	4	
1	0	0	0	0	507	1022	0	443	39	4	
2	0	0	0	0	510	1022	0	432	39	4	
3	0	0	0	0	506	1022	0	440	39	4	
4	0	0	0	0	507	1022	0	418	40	4	
5	0	0	0	0	508	1022	0	452	39	4	
6	0	0	0	0	507	1022	0	432	39	4	
7	0	0	0	0	506	1022	0	492	39	4	
8	0	0	0	0	507	1022	0	527	40	4	
9	0	0	0	0	510	1022	0	447	39	4	
10	0	0	0	0	507	968	0	448	39	4	
11	0	0	0	0	505	684	0	466	39	4	
12	0	0	0	0	508	0	0	464	40	4	
13	0	0	0	0	505	0	0	518	39	4	
14	0	0	0	0	509	0	0	498	39	4	
15	0	0	0	0	508	0	0	487	39	4	
0	0	0	0	0	504	0	0	470	40	4	
1	0	0	0	0	507	0	0	431	39	4	
2	0	0	0	0	508	0	0	444	39	4	
3	0	0	0	0	507	0	0	454	39	4	
4	0	0	0	0	508	0	0	491	40	4	
5	0	0	0	0	506	0	0	514	39	4	
6	0	0	0	0	508	0	0	517	39	4	
7	0	0	0	0	506	40	0	449	39	4	
8	0	0	0	0	507	294	0	454	40	4	
9	0	0	0	0	507	1022	0	501	39	4	
10	0	0	0	0	508	1022	0	547	39	4	
11	0	0	0	0	505	1022	0	491	40	4	
12	0	0	0	0	509	1022	0	457	40	4	
13	0	0	0	0	509	1022	0	467	39	4	
14	0	0	0	0	511	1022	0	475	39	4	
15	0	0	0	0	508	1022	0	472	39	4	
0	0	0	0	0	509	1022	0	496	40	4	
1	0	0	0	0	507	1022	0	484	39	4	
2	0	0	0	0	509	1022	0	484	39	4	
3	0	0	0	0	505	1022	0	513	39	4	
4	0	0	0	0	508	981	0	511	40	4	
5	0	0	0	0	506	744	0	541	39	4	
6	0	0	0	0	510	0	0	525	39	4	
7	0	0	0	0	508	0	0	524	39	4	
8	0	0	0	0	507	0	0	547	40	4	
9	0	0	0	0	507	0	0	512	40	4	
10	0	0	0	0	506	0	0	505	39	4	
11	0	0	0	0	509	0	0	527	39	4	
12	0	0	0	0	509	0	0	525	40	4	
13	0	0	0	0	506	0	0	575	39	4	
14	0	0	0	0	508	0	0	545	39	4	
15	0	0	0	0	510	0	0	552	39	4	
0	0	0	0	0	508	0	0	626	40	4	
1	0	0	0	0	508	59	0	585	39	4	
2	0	0	0	0	507	323	0	610	39	4	
3	0	0	0	0	505	1022	0	535	39	4	
4	0	0	0	0	509	1022	0	526	40	4	
5	0	0	0	0	508	1022	0	537	39	4	
6	0	0	0	0	508	1022	0	503	39	4	
7	0	0	0	0	507	1022	0	504	39	4	
8	0	0	0	0	508	1022	0	507	40	4	
9	0	0	0	0	505	1022	0	494	39	4	
10	0	0	0	0	510	1022	0	524	39	4	
11	0	0	0	0	508	1022	0	579	39	4	
12	0	0	0	0	510	1022	0	572	40	4	
13	0	0	0	0	503	1022	0	528	39	4	
14	0	0	0	0	508	969	0	493	39	4	
15	0	0	0	0	506	710	0	486	39	4	
0	0	0	0	0	507	0	0	494	40	4	
1	0	0	0	0	508	0	0	499	39	4	
2	0	0	0	0	508	0	0	539	39	4	
3	0	0	0	0	504	0	0	511	39	4	
4	0	0	0	0	509	0	0	510	40	4	
5	0	0	0	0	508	0	0	528	39	4	
6	0	0	0	0	510	0	0	564	39	4	
7	0	0	0	0	505	0	0	541	40	4	
8	0	0	0	0	508	0	0	506	40	4	
9	0	0	0	0	504	0	0	495	39	4	
10	0	0	0	0	508	0	0	528	39	4	
11	0	0	0	0	508	23	0	604	39	4	
12	0	0	0	0	509	223	0	554	40	4	
13	0	0	0	0	504	856	0	486	39	4	
14	0	0	0	0	510	1022	0	476	39	4	
15	0	0	0	0	507	1022	0	521	39	4	
0	0	0	0	0	508	1022	0	560	40	4	
1	0	0	0	0	507	1022	0	471	39	4	
2	0	0	0	0	510	1022	0	458	39	4	
3	0	0	0	0	508	1022	0	531	39	4	
4	0	0	0	0	508	1022	0	539	40	4	
5	0	0	0	0	507	1023	0	514	39	4	
6	0	0	0	0	508	1022	0	540	39	4	
7	0	0	0	0	507	1022	0	481	39	4	
8	0	0	0	0	507	1021	0	491	40	4	
9	0	0	0	0	506	846	0	527	39	4	
10	0	0	0	0	506	295	0	546	39	4	
11	0	0	0	0	507	0	0	551	39	4	
12	0	0	0	0	511	0	0	496	40	4	
13	0	0	0	0	505	0	0	512	39	4	
14	0	0	0	0	508	0	0	529	39	4	
15	0	0	0	0	508	0	0	518	39	4	
0	0	0	0	0	507	0	0	528	40	4	
1	0	0	0	0	507	0	0	516	39	4	
2	0	0	0	0	510	0	0	518	39	4	
3	0	0	0	0	507	0	0	544	39	4	
4	0	0	0	0	507	0	0	516	40	4	
5	0	0	0	0	507	17	0	519	39	4	
6	0	0	0	0	507	214	0	511	39	4	
7	0	0	0	0	506	803	0	484	40	4	
8	0	0	0	0	508	1022	0	503	40	4	
9	0	0	0	0	508	1022	0	484	39	4	
10	0	0	0	0	509	1022	0	492	39	4	
11	0	0	0	0	508	1022	0	526	39	4	
12	0	0	0	0	507	1022	0	491	40	4	
13	0	0	0	0	505	1022	0	492	40	4	
14	0	0	0	0	510	1022	0	508	39	4	
15	0	0	0	0	508	1022	0	483	39	4	
0	0	0	0	0	508	1022	0	496	40	4	
1	0	0	0	0	508	1022	0	483	39	4	
2	0	0	0	0	510	1021	0	507	39	4	
3	0	0	0	0	505	840	0	532	39	4	
4	0	0	0	0	509	301	0	513	40	4	
5	0	0	0	0	508	0	0	514	39	4	
6	0	0	0	0	510	0	0	520	39	4	
7	0	0	0	0	505	0	0	528	39	4	
8	0	0	0	0	509	0	0	555	40	4	
9	0	0	0	0	504	0	0	538	39	4	
10	0	0	0	0	508	0	0	535	39	4	
11	0	0	0	0	504	0	0	572	39	4	
12	0	0	0	0	508	0	0	500	40	4	
13	0	0	0	0	506	0	0	494	39	4	
14	0	0	0	0	507	0	0	518	39	4	
15	0	0	0	0	508	6	0	503	39	4	
0	0	0	0	0	507	167	0	523	40	4	
1	0	0	0	0	506	683	0	512	39	4	
2	0	0	0	0	509	1022	0	504	39	4	
3	0	0	0	0	508	1022	0	568	39	4	
4	0	0	0	0	510	1022	0	543	40	4	
5	0	0	0	0	507	1022	0	538	39	4	
6	0	0	0	0	508	1022	0	497	39	4	
7	0	0	0	0	506	1022	0	484	39	4	
8	0	0	0	0	505	1022	0	505	40	4	
9	0	0	0	0	505	1022	0	566	40	4	
10	0	0	0	0	508	1023	0	544	39	4	
11	0	0	0	0	507	1022	0	573	39	4	
12	0	0	0	0	508	1022	0	528	40	4	
13	0	0	0	0	503	889	0	501	39	4	
14	0	0	0	0	509	450	0	467	39	4	
15	0	0	0	0	507	0	0	489	39	4	
0	0	0	0	0	510	0	0	467	40	4	
1	0	0	0	0	507	0	0	501	39	4	
2	0	0	0	0	507	0	0	526	39	4	
3	0	0	0	0	507	0	0	451	39	4	
4	0	0	0	0	506	0	0	441	40	4	
5	0	0	0	0	507	0	0	456	39	4	
6	0	0	0	0	510	0	0	442	39	4	
7	0	0	0	0	507	0	0	494	39	4	
8	0	0	0	0	508	0	0	526	40	4	
9	0	0	0	0	510	0	0	492	39	4	
10	0	0	0	0	511	139	0	470	39	4	
11	0	0	0	0	504	587	0	480	39	4	
12	0	0	0	0	508	1022	0	496	40	4	
13	0	0	0	0	505	1022	0	496	40	4	
14	0	0	0	0	509	1022	0	454	39	4	
15	0	0	0	0	507	1022	0	471	39	4	
0	0	0	0	0	505	1022	0	487	40	4	
1	0	0	0	0	504	1022	0	482	39	4	
2	0	0	0	0	508	1022	0	517	39	4	
3	0	0	0	0	508	1022	0	492	39	4	
4	0	0	0	0	510	1022	0	494	40	4	
5	0	0	0	0	505	1022	0	521	39	4	
6	0	0	0	0	508	1022	0	496	39	4	
7	0	0	0	0	506	912	0	519	39	4	
8	0	0	0	0	507	518	0	502	40	4	
9	0	0	0	0	508	0	0	494	39	4	
10	0	0	0	0	508	0	0	508	39	4	
11	0	0	0	0	505	0	0	488	39	4	
12	0	0	0	0	505	0	0	558	40	4	
13	0	0	0	0	504	0	0	577	39	4	
14	0	0	0	0	509	0	0	536	39	4	
15	0	0	0	0	508	0	0	512	39	4	
0	0	0	0	0	508	0	0	477	40	4	
1	0	0	0	0	504	0	0	483	39	4	
2	0	0	0	0	507	0	0	568	39	4	
3	0	0	0	0	508	0	0	575	39	4	
4	0	0	0	0	510	109	0	552	40	4	
5	0	0	0	0	507	500	0	507	39	4	
6	0	0	0	0	508	1022	0	495	39	4	
7	0	0	0	0	506	1022	0	509	39	4	
8	0	0	0	0	506	1022	0	497	40	4	
9	0	0	0	0	508	1022	0	540	39	4	
10	0	0	0	0	509	1022	0	508	39	4	
11	0	0	0	0	507	1022	0	571	39	4	
12	0	0	0	0	506	1022	0	524	40	4	
13	0	0	0	0	506	1023	0	567	39	4	
14	0	0	0	0	507	1022	0	556	39	4	
15	0	0	0	0	506	1022	0	595	39	4	
0	0	0	0	0	508	1022	0	523	40	4	
1	0	0	0	0	505	942	0	517	39	4	
2	0	0	0	0	508	589	0	547	39	4	
3	0	0	0	0	508	0	0	574	39	4	
4	0	0	0	0	506	0	0	583	40	4	
5	0	0	0	0	509	0	0	519	39	4	
6	0	0	0	0	508	0	0	516	39	4	
7	0	0	0	0	505	0	0	545	39	4	
8	0	0	0	0	508	0	0	579	40	4	
9	0	0	0	0	506	0	0	567	39	4	
10	0	0	0	0	508	0	0	561	39	4	
11	0	0	0	0	507	0	0	508	39	4	
12	0	0	0	0	506	0	0	515	40	4	
13	0	0	0	0	508	0	0	604	39	4	
14	0	0	0	0	507	53	0	578	39	4	
15	0	0	0	0	508	319	0	511	39	4	
0	0	0	0	0	507	1022	0	502	40	4	
1	0	0	0	0	506	1023	0	513	39	4	
2	0	0	0	0	508	1022	0	563	39	4	
3	0	0	0	0	507	1022	0	492	39	4	
4	0	0	0	0	509	1022	0	484	40	4	
5	0	0	0	0	508	1022	0	503	39	4	
6	0	0	0	0	508	1022	0	488	39	4	
7	0	0	0	0	505	1022	0	482	39	4	
8	0	0	0	0	508	1022	0	499	40	4	
9	0	0	0	0	504	1022	0	483	39	4	
10	0	0	0	0	508	1022	0	536	39	4	
11	0	0	0	0	505	991	0	474	39	4	
12	0	0	0	0	510	750	0	470	40	4	
13	0	0	0	0	506	74	0	488	39	4	
14	0	0	0	0	508	0	0	481	39	4	
15	0	0	0	0	507	0	0	480	39	4	
0	0	0	0	0	506	0	0	466	40	4	
1	0	0	0	0	505	0	0	452	39	4	
2	0	0	0	0	507	0	0	478	39	4	
3	0	0	0	0	506	0	0	448	39	4	
4	0	0	0	0	506	0	0	451	40	4	
5	0	0	0	0	504	0	0	468	39	4	
6	0	0	0	0	508	0	0	452	39	4	
7	0	0	0	0	506	0	0	481	39	4	
8	0	0	0	0	505	9	0	453	40	4	
9	0	0	0	0	507	206	0	458	39	4	
10	0	0	0	0	506	736	0	496	39	4	
11	0	0	0	0	505	1022	0	479	39	4	
12	0	0	0	0	507	1023	0	496	40	4	
13	0	0	0	0	508	1022	0	493	39	4	
14	0	0	0	0	511	1022	0	496	39	4	
15	0	0	0	0	505	1022	0	517	39	4	
0	0	0	0	0	506	1022	0	501	40	4	
1	0	0	0	0	504	1022	0	501	39	4	
2	0	0	0	0	505	1022	0	509	39	4	
3	0	0	0	0	507	1022	0	509	39	4	
4	0	0	0	0	508	1022	0	526	40	4	
5	0	0	0	0	505	1022	0	524	39	4	
6	0	0	0	0	509	842	0	533	39	4	
7	0	0	0	0	507	346	0	572	39	4	
8	0	0	0	0	508	0	0	585	40	4	
9	0	0	0	0	506	0	0	604	39	4	
10	0	0	0	0	506	0	0	560	39	4	
11	0	0	0	0	504	0	0	551	39	4	
12	0	0	0	0	508	0	0	560	40	4	
13	0	0	0	0	505	0	0	561	39	4	
14	0	0	0	0	508	0	0	572	39	4	
15	0	0	0	0	506	0	0	557	39	4	
0	0	0	0	0	507	0	0	547	40	4	
1	0	0	0	0	507	0	0	575	39	4	
2	0	0	0	0	508	0	0	608	39	4	
3	0	0	0	0	504	143	0	568	39	4	
4	0	0	0	0	506	548	0	527	40	4	
5	0	0	0	0	509	1022	0	537	39	4	
6	0	0	0	0	507	1022	0	545	39	4	
7	0	0	0	0	506	1022	0	548	39	4	
8	0	0	0	0	508	1022	0	565	40	4	
9	0	0	0	0	506	1022	0	563	39	4	
10	0	0	0	0	508	1023	0	549	39	4	
11	0	0	0	0	506	1023	0	521	39	4	
12	0	0	0	0	507	1022	0	541	40	4	
13	0	0	0	0	508	1022	0	484	39	4	
14	0	0	0	0	509	1022	0	474	39	4	
15	0	0	0	0	504	1022	0	489	39	4	
0	0	0	0	0	505	907	0	523	40	4	
1	0	0	0	0	504	531	0	536	39	4	
2	0	0	0	0	508	0	0	507	39	4	
3	0	0	0	0	506	0	0	467	39	4	
4	0	0	0	0	507	0	0	464	40	4	
5	0	0	0	0	505	0	0	525	39	4	
6	0	0	0	0	507	0	0	530	39	4	
7	0	0	0	0	504	0	0	458	39	4	
8	0	0	0	0	508	0	0	452	40	4	
9	0	0	0	0	505	0	0	489	39	4	
10	0	0	0	0	510	0	0	540	39	4	
11	0	0	0	0	507	0	0	534	39	4	
12	0	0	0	0	509	0	0	476	40	4	
13	0	0	0	0	507	87	0	472	39	4	
14	0	0	0	0	510	390	0	492	39	4	
15	0	0	0	0	506	1022	0	479	39	4	
0	0	0	0	0	511	1022	0	481	40	4	
1	0	0	0	0	504	1022	0	508	39	4	
2	0	0	0	0	508	1022	0	480	39	4	
3	0	0	0	0	505	1022	0	519	39	4	
4	0	0	0	0	505	1022	0	490	40	4	
5	0	0	0	0	506	1022	0	481	39	4	
6	0	0	0	0	510	1022	0	506	39	4	
7	0	0	0	0	505	1022	0	492	39	4	
8	0	0	0	0	507	1022	0	518	40	4	
9	0	0	0	0	504	1022	0	487	39	4	
10	0	0	0	0	508	938	0	504	39	4	
11	0	0	0	0	505	651	0	577	39	4	
12	0	0	0	0	508	0	0	560	40	4	
13	0	0	0	0	505	0	0	515	39	4	
14	0	0	0	0	509	0	0	465	39	4	
15	0	0	0	0	509	0	0	444	40	4	
0	0	0	0	0	508	0	0	466	40	4	
1	0	0	0	0	507	0	0	425	39	4	
2	0	0	0	0	505	0	0	435	39	4	
3	0	0	0	0	504	0	0	446	39	4	
4	0	0	0	0	506	0	0	439	40	4	
5	0	0	0	0	505	0	0	449	39	4	
6	0	0	0	0	506	0	0	539	39	4	
7	0	0	0	0	509	70	0	543	39	4	
8	0	0	0	0	506	313	0	474	40	4	
9	0	0	0	0	506	1022	0	441	39	4	
10	0	0	0	0	510	1023	0	458	39	4	
11	0	0	0	0	507	1023	0	510	39	4	
12	0	0	0	0	508	1022	0	516	40	4	
13	0	0	0	0	505	1022	0	452	39	4	
14	0	0	0	0	511	1022	0	446	39	4	
15	0	0	0	0	507	1023	0	489	39	4	
0	0	0	0	0	508	1022	0	519	40	4	
1	0	0	0	0	506	1023	0	523	39	4	
2	0	0	0	0	509	1022	0	459	39	4	
3	0	0	0	0	505	1022	0	467	39	4	
4	0	0	0	0	507	944	0	502	40	4	
5	0	0	0	0	505	663	0	487	39	4	
6	0	0	0	0	507	0	0	497	39	4	
7	0	0	0	0	507	0	0	530	39	4	
8	0	0	0	0	506	0	0	516	40	4	
9	0	0	0	0	507	0	0	542	39	4	
10	0	0	0	0	506	0	0	575	39	4	
11	0	0	0	0	507	0	0	639	39	4	
12	0	0	0	0	512	0	0	606	40	4	
13	0	0	0	0	501	0	0	536	39	4	
14	0	0	0	0	524	0	0	535	39	4	
15	0	0	0	0	477	0	0	561	39	4	
0	0	0	0	0	542	0	0	572	40	4	
1	0	0	0	0	512	70	0	571	39	4	
2	0	0	0	0	508	325	0	555	39	4	
3	0	0	0	0	542	1022	0	500	39	4	
4	0	0	0	0	496	1022	0	511	40	4	
5	0	0	0	0	510	1022	0	584	39	4	
6	0	0	0	0	507	1022	0	556	39	4	
7	0	0	0	0	534	1022	0	532	39	4	
8	0	0	0	0	500	1022	0	568	40	4	
9	0	0	0	0	534	1022	0	544	39	4	
10	0	0	0	0	521	1022	0	503	39	4	
11	0	0	0	0	505	1022	0	480	39	4	
12	0	0	0	0	579	1022	0	483	40	4	
13	0	0	0	0	541	1022	0	492	39	4	
14	0	0	0	0	518	971	0	491	39	4	
15	0	0	0	0	468	736	0	514	40	4	
0	0	0	0	0	505	16	0	495	40	4	
1	0	0	0	0	547	0	0	492	39	4	
2	0	0	0	0	555	0	0	514	39	4	
3	0	0	0	0	389	0	0	487	39	4	
4	0	0	0	0	493	0	0	512	40	4	
5	0	0	0	0	467	0	0	494	39	4	
6	0	0	0	0	521	0	0	506	39	4	
7	0	0	0	0	519	0	0	523	39	4	
8	0	0	0	0	413	0	0	506	40	4	
9	0	0	0	0	536	0	0	487	39	4	
10	0	0	0	0	504	0	0	494	39	4	
11	0	0	0	0	495	41	0	492	40	4	
12	0	0	0	0	498	217	0	520	40	4	
13	0	0	0	0	501	784	0	501	40	4	
14	0	0	0	0	509	1022	0	486	39	4	
15	0	0	0	0	502	1022	0	500	39	4	
0	0	0	0	0	508	1023	0	469	40	4	
1	0	0	0	0	506	1023	0	489	39	4	
2	0	0	0	0	488	1022	0	486	39	4	
3	0	0	0	0	522	1022	0	480	39	4	
4	0	0	0	0	492	1022	0	507	40	4	
5	0	0	0	0	502	1022	0	479	39	4	
6	0	0	0	0	518	1022	0	479	39	4	
7	0	0	0	0	505	1022	0	486	39	4	
8	0	0	0	0	505	992	0	476	40	4	
9	0	0	0	0	508	788	0	515	39	4	
10	0	0	0	0	502	167	0	522	39	4	
11	0	0	0	0	507	0	0	528	40	4	
12	0	0	0	0	499	0	0	548	40	4	
13	0	0	0	0	505	0	0	532	39	4	
14	0	0	0	0	508	0	0	532	39	4	
15	0	0	0	0	491	0	0	536	39	4	
0	0	0	0	0	520	0	0	527	40	4	
1	0	0	0	0	510	0	0	550	39	4	
2	0	0	0	0	509	0	0	558	39	4	
3	0	0	0	0	506	0	0	577	40	4	
4	0	0	0	0	519	0	0	596	40	4	
5	0	0	0	0	499	46	0	547	39	4	
6	0	0	0	0	503	257	0	546	39	4	
7	0	0	0	0	496	901	0	545	39	4	
8	0	0	0	0	515	1023	0	536	40	4	
9	0	0	0	0	512	1023	0	487	40	4	
10	0	0	0	0	483	1023	0	480	39	4	
11	0	0	0	0	506	1022	0	508	39	4	
12	0	0	0	0	531	1023	0	550	40	4	
13	0	0	0	0	511	1023	0	528	39	4	
14	0	0	0	0	501	1023	0	528	39	4	
15	0	0	0	0	497	1023	0	454	39	4	
0	0	0	0	0	496	1022	0	435	40	4	
1	0	0	0	0	492	1022	0	449	39	4	
2	0	0	0	0	523	984	0	437	39	4	
3	0	0	0	0	492	771	0	448	39	4	
4	0	0	0	0	496	116	0	459	40	4	
5	0	0	0	0	519	0	0	486	39	4	
6	0	0	0	0	507	0	0	503	39	4	
7	0	0	0	0	504	0	0	457	40	4	
8	0	0	0	0	509	0	0	463	40	4	
9	0	0	0	0	507	0	0	480	40	4	
10	0	0	0	0	506	0	0	465	39	4	
11	0	0	0	0	503	0	0	491	39	4	
12	0	0	0	0	497	0	0	467	40	4	
13	0	0	0	0	504	0	0	481	39	4	
14	0	0	0	0	501	0	0	510	39	4	
15	0	0	0	0	521	49	0	499	40	4	
0	0	0	0	0	512	266	0	523	40	4	
1	0	0	0	0	507	923	0	510	39	4	
2	0	0	0	0	508	1023	0	513	39	4	
3	0	0	0	0	508	1023	0	556	39	4	
4	0	0	0	0	504	1023	0	521	40	4	
5	0	0	0	0	498	1023	0	517	39	4	
6	0	0	0	0	505	1023	0	555	39	4	
7	0	0	0	0	506	1023	0	539	40	4	
8	0	0	0	0	505	1022	0	526	40	4	
9	0	0	0	0	496	1023	0	535	39	4	
10	0	0	0	0	504	1023	0	519	39	4	
11	0	0	0	0	506	1022	0	556	39	4	
12	0	0	0	0	508	977	0	576	40	4	
13	0	0	0	0	502	749	0	589	39	4	
14	0	0	0	0	510	78	0	618	39	4	
15	0	0	0	0	505	0	0	571	39	4	
0	0	0	0	0	508	0	0	539	40	4	
1	0	0	0	0	507	0	0	499	39	4	
2	0	0	0	0	509	0	0	507	39	4	
3	0	0	0	0	504	0	0	535	39	4	
4	0	0	0	0	513	0	0	583	40	4	
5	0	0	0	0	508	0	0	568	39	4	
6	0	0	0	0	514	0	0	537	39	4	
7	0	0	0	0	506	0	0	546	39	4	
8	0	0	0	0	501	0	0	511	40	4	
9	0	0	0	0	509	45	0	502	39	4	
10	0	0	0	0	512	247	0	527	39	4	
11	0	0	0	0	517	863	0	512	39	4	
12	0	0	0	0	502	1023	0	505	40	4	
13	0	0	0	0	509	1023	0	532	40	4	
14	0	0	0	0	498	1023	0	524	39	4	
15	0	0	0	0	553	1023	0	530	39	4	
0	0	0	0	0	461	1023	0	538	40	4	
1	0	0	0	0	551	1023	0	607	39	4	
2	0	0	0	0	478	1023	0	566	39	4	
3	0	0	0	0	558	1023	0	562	39	4	
4	0	0	0	0	434	1022	0	527	40	4	
5	0	0	0	0	508	1022	0	454	40	4	
6	0	0	0	0	412	981	0	445	39	4	
7	0	0	0	0	547	784	0	486	39	4	
8	0	0	0	0	566	146	0	500	40	4	
9	0	0	0	0	529	0	0	527	39	4	
10	0	0	0	0	528	0	0	467	39	4	
11	0	0	0	0	563	0	0	430	39	4	
12	0	0	0	0	525	0	0	433	40	4	
13	0	0	0	0	434	0	0	482	40	4	
14	0	0	0	0	514	0	0	525	39	4	
15	0	0	0	0	481	0	0	497	39	4	
0	0	0	0	0	502	0	0	536	40	4	
1	0	0	0	0	501	0	0	477	39	4	
2	0	0	0	0	516	0	0	478	39	4	
3	0	0	0	0	533	55	0	513	40	4	
4	0	0	0	0	539	272	0	550	40	4	
5	0	0	0	0	508	930	0	504	39	4	
6	0	0	0	0	483	1023	0	527	39	4	
7	0	0	0	0	516	1023	0	515	39	4	
8	0	0	0	0	471	1023	0	507	40	4	
9	0	0	0	0	499	1023	0	520	39	4	
10	0	0	0	0	508	1023	0	491	39	4	
11	0	0	0	0	507	1023	0	455	40	4	
12	0	0	0	0	513	1023	0	447	40	4	
13	0	0	0	0	493	1023	0	462	39	4	
14	0	0	0	0	525	1022	0	455	39	4	
15	0	0	0	0	508	1022	0	499	39	4	
0	0	0	0	0	497	975	0	470	40	4	
1	0	0	0	0	519	764	0	468	40	4	
2	0	0	0	0	507	109	0	497	39	4	
3	0	0	0	0	512	0	0	487	40	4	
4	0	0	0	0	509	0	0	494	40	4	
5	0	0	0	0	499	0	0	512	39	4	
6	0	0	0	0	515	0	0	502	39	4	
7	0	0	0	0	505	0	0	543	40	4	
8	0	0	0	0	506	0	0	521	40	4	
9	0	0	0	0	503	0	0	518	40	4	
10	0	0	0	0	511	0	0	543	39	4	
11	0	0	0	0	499	0	0	508	39	4	
12	0	0	0	0	515	0	0	494	40	4	
13	0	0	0	0	502	39	0	504	39	4	
14	0	0	0	0	513	234	0	486	39	4	
15	0	0	0	0	510	839	0	518	40	4	
0	0	0	0	0	522	1023	0	487	40	4	
1	0	0	0	0	503	1023	0	491	40	4	
2	0	0	0	0	568	1022	0	502	39	4	
3	0	0	0	0	396	1023	0	504	39	4	
4	0	0	0	0	633	1023	0	529	40	4	
5	0	0	0	0	423	1023	0	530	39	4	
6	0	0	0	0	626	1023	0	512	39	4	
7	0	0	0	0	503	1023	0	540	40	4	
8	0	0	0	0	620	1023	0	522	40	4	
9	0	0	0	0	414	1022	0	515	39	4	
10	0	0	0	0	545	989	0	562	40	4	
11	0	0	0	0	485	797	0	579	39	4	
12	0	0	0	0	504	187	0	595	39	4	
13	0	0	0	0	499	0	0	570	40	4	
14	0	0	0	0	508	0	0	523	39	4	
15	0	0	0	0	502	0	0	482	39	4	
0	0	0	0	0	469	0	0	480	40	4	
1	0	0	0	0	517	0	0	503	39	4	
2	0	0	0	0	451	0	0	470	39	4	
3	0	0	0	0	511	0	0	464	40	4	
4	0	0	0	0	519	0	0	494	39	4	
5	0	0	0	0	493	0	0	475	39	4	
6	0	0	0	0	505	0	0	514	40	4	
7	0	0	0	0	511	34	0	574	39	4	
8	0	0	0	0	508	211	0	590	40	4	
9	0	0	0	0	503	770	0	564	40	4	
10	0	0	0	0	509	1023	0	496	39	4	
11	0	0	0	0	502	1023	0	476	39	4	
12	0	0	0	0	505	1022	0	538	40	4	
13	0	0	0	0	504	1023	0	530	39	4	
14	0	0	0	0	502	1023	0	494	39	4	
15	0	0	0	0	508	1023	0	473	40	4	
0	0	0	0	0	507	1023	0	465	40	4	
1	0	0	0	0	509	1023	0	486	40	4	
2	0	0	0	0	499	1023	0	472	39	4	
3	0	0	0	0	511	1022	0	480	39	4	
4	0	0	0	0	510	1014	0	507	40	4	
5	0	0	0	0	502	848	0	582	39	4	
6	0	0	0	0	504	317	0	546	39	4	
7	0	0	0	0	518	0	0	542	39	4	
8	0	0	0	0	496	0	0	496	40	4	
9	0	0	0	0	515	0	0	502	39	4	
10	0	0	0	0	611	0	0	535	39	4	
11	0	0	0	0	423	0	0	574	40	4	
12	0	0	0	0	667	0	0	590	40	4	
13	0	0	0	0	269	0	0	536	40	4	
14	0	0	0	0	700	0	0	515	39	4	
15	0	0	0	0	592	0	0	533	39	4	
0	0	0	0	0	378	0	0	505	40	4	
1	0	0	0	0	532	24	0	491	40	4	
2	0	0	0	0	502	194	0	495	39	4	
3	0	0	0	0	499	730	0	483	39	4	
4	0	0	0	0	507	1023	0	520	41	4	
5	0	0	0	0	505	1023	0	496	39	4	
6	0	0	0	0	513	1023	0	504	39	4	
7	0	0	0	0	477	1023	0	518	40	4	
8	0	0	0	0	514	1023	0	500	39	4	
9	0	0	0	0	513	1023	0	502	39	4	
10	0	0	0	0	504	1023	0	512	40	4	
11	0	0	0	0	516	1023	0	500	39	4	
12	0	0	0	0	502	1023	0	506	40	4	
13	0	0	0	0	505	1022	0	483	40	4	
14	0	0	0	0	509	998	0	525	39	4	
15	0	0	0	0	503	834	0	569	40	4	
0	0	0	0	0	508	293	0	530	40	4	
1	0	0	0	0	505	0	0	517	39	4	
2	0	0	0	0	508	0	0	463	39	4	
3	0	0	0	0	511	0	0	440	40	4	
4	0	0	0	0	505	0	0	474	39	4	
5	0	0	0	0	503	0	0	502	40	4	
6	0	0	0	0	516	0	0	530	39	4	
7	0	0	0	0	507	0	0	477	39	4	
8	0	0	0	0	514	0	0	477	40	4	
9	0	0	0	0	512	0	0	504	40	4	
10	0	0	0	0	509	0	0	494	39	4	
11	0	0	0	0	497	10	0	495	40	4	
12	0	0	0	0	523	158	0	510	40	4	
13	0	0	0	0	477	646	0	505	39	4	
14	0	0	0	0	524	1023	0	594	39	4	
15	0	0	0	0	472	1023	0	578	39	4	
0	0	0	0	0	651	1023	0	545	40	4	
1	0	0	0	0	426	1023	0	558	40	4	
2	0	0	0	0	513	1023	0	557	39	4	
3	0	0	0	0	563	1023	0	495	39	4	
4	0	0	0	0	456	1023	0	484	39	4	
5	0	0	0	0	665	1023	0	510	40	4	
6	0	0	0	0	412	1022	0	560	40	4	
7	0	0	0	0	547	1022	0	519	39	4	
8	0	0	0	0	508	1022	0	499	40	4	
9	0	0	0	0	504	875	0	501	40	4	
10	0	0	0	0	511	412	0	543	38	4	
11	0	0	0	0	508	0	0	558	40	4	
12	0	0	0	0	516	0	0	555	40	4	
13	0	0	0	0	508	0	0	479	39	4	
14	0	0	0	0	524	0	0	476	40	4	
15	0	0	0	0	505	0	0	523	39	4	
0	0	0	0	0	484	0	0	522	39	4	
1	0	0	0	0	520	0	0	553	40	4	
2	0	0	0	0	514	0	0	519	39	4	
3	0	0	0	0	506	0	0	487	39	4	
4	0	0	0	0	504	0	0	505	40	4	
5	0	0	0	0	505	2	0	542	39	4	
6	0	0	0	0	507	150	0	576	39	4	
7	0	0	0	0	511	620	0	550	40	4	
8	0	0	0	0	503	1023	0	497	40	4	
9	0	0	0	0	512	1023	0	493	39	4	
10	0	0	0	0	510	1023	0	491	39	4	
11	0	0	0	0	507	1023	0	486	39	4	
12	0	0	0	0	508	1023	0	509	40	4	
13	0	0	0	0	492	1023	0	487	40	4	
14	0	0	0	0	514	1023	0	484	39	4	
15	0	0	0	0	512	1023	0	493	40	4	
0	0	0	0	0	512	1023	0	475	40	4	
1	0	0	0	0	504	1022	0	494	39	4	
2	0	0	0	0	501	1020	0	464	39	4	
3	0	0	0	0	504	870	0	462	39	4	
4	0	0	0	0	502	396	0	487	40	4	
5	0	0	0	0	518	0	0	476	40	4	
6	0	0	0	0	519	0	0	489	39	4	
7	0	0	0	0	435	0	0	500	39	4	
8	0	0	0	0	691	0	0	486	40	4	
9	0	0	0	0	169	0	0	527	39	4	
10	0	0	0	0	612	0	0	502	39	4	
11	0	0	0	0	543	0	0	508	40	4	
12	0	0	0	0	372	0	0	537	40	4	
13	0	0	0	0	636	0	0	515	39	4	
14	0	0	0	0	433	0	0	534	39	4	
15	0	0	0	0	549	6	0	532	40	4	
0	0	0	0	0	497	132	0	519	40	4	
1	0	0	0	0	519	563	0	532	40	4	
2	0	0	0	0	497	1023	0	517	39	4	
3	0	0	0	0	505	1023	0	523	39	4	
4	0	0	0	0	515	1023	0	532	40	4	
5	0	0	0	0	509	1023	0	527	40	4	
6	0	0	0	0	484	1023	0	546	39	4	
7	0	0	0	0	492	1023	0	540	40	4	
8	0	0	0	0	511	1023	0	626	40	4	
9	0	0	0	0	482	1023	0	583	39	4	
10	0	0	0	0	492	1023	0	540	39	4	
11	0	0	0	0	509	1022	0	556	39	4	
12	0	0	0	0	506	1022	0	514	40	4	
13	0	0	0	0	509	913	0	559	40	4	
14	0	0	0	0	504	516	0	484	39	4	
15	0	0	0	0	508	0	0	493	40	4	
0	0	0	0	0	514	0	0	519	40	4	
1	0	0	0	0	508	0	0	487	39	4	
2	0	0	0	0	511	0	0	482	39	4	
3	0	0	0	0	496	0	0	502	39	4	
4	0	0	0	0	497	0	0	486	39	4	
5	0	0	0	0	486	0	0	478	40	4	
6	0	0	0	0	505	0	0	486	39	4	
7	0	0	0	0	504	0	0	466	39	4	
8	0	0	0	0	485	0	0	512	40	4	
9	0	0	0	0	503	0	0	465	39	4	
10	0	0	0	0	522	88	0	455	39	4	
11	0	0	0	0	512	438	0	489	40	4	
12	0	0	0	0	518	1023	0	470	40	4	
13	0	0	0	0	507	1023	0	505	39	4	
14	0	0	0	0	500	1023	0	583	39	4	
15	0	0	0	0	654	1023	0	575	39	4	
0	0	0	0	0	289	1022	0	581	40	4	
1	0	0	0	0	634	1023	0	542	40	4	
2	0	0	0	0	308	1022	0	549	39	4	
3	0	0	0	0	691	1023	0	501	40	4	
4	0	0	0	0	256	1022	0	496	40	4	
5	0	0	0	0	622	1023	0	505	39	4	
6	0	0	0	0	443	1022	0	492	39	4	
7	0	0	0	0	494	934	0	492	40	4	
8	0	0	0	0	579	569	0	502	39	4	
9	0	0	0	0	540	0	0	482	39	4	
10	0	0	0	0	510	0	0	517	40	4	
11	0	0	0	0	505	0	0	583	39	4	
12	0	0	0	0	503	0	0	542	39	4	
13	0	0	0	0	510	0	0	500	40	4	
14	0	0	0	0	440	0	0	468	39	4	
15	0	0	0	0	513	0	0	478	39	4	
0	0	0	0	0	547	0	0	482	40	4	
1	0	0	0	0	509	0	0	470	39	4	
2	0	0	0	0	487	0	0	489	39	4	
3	0	0	0	0	527	0	0	475	40	4	
4	0	0	0	0	516	56	0	487	39	4	
5	0	0	0	0	504	354	0	509	40	4	
6	0	0	0	0	514	1022	0	511	39	4	
7	0	0	0	0	504	1022	0	533	39	4	
8	0	0	0	0	508	1023	0	504	40	4	
9	0	0	0	0	500	1023	0	499	40	4	
10	0	0	0	0	512	1023	0	527	39	4	
11	0	0	0	0	514	1023	0	542	40	4	
12	0	0	0	0	518	1023	0	541	40	4	
13	0	0	0	0	511	1023	0	551	39	4	
14	0	0	0	0	513	1023	0	537	39	4	
15	0	0	0	0	515	1023	0	618	39	4	
0	0	0	0	0	509	1022	0	624	40	4	
1	0	0	0	0	500	995	0	572	40	4	
2	0	0	0	0	520	747	0	534	39	4	
3	0	0	0	0	487	116	0	523	39	4	
4	0	0	0	0	519	0	0	543	40	4	
5	0	0	0	0	608	0	0	531	39	4	
6	0	0	0	0	480	0	0	479	39	4	
7	0	0	0	0	433	0	0	452	40	4	
8	0	0	0	0	600	0	0	480	40	4	
9	0	0	0	0	620	0	0	449	40	4	
10	0	0	0	0	554	0	0	449	39	4	
11	0	0	0	0	515	0	0	462	39	4	
12	0	0	0	0	490	0	0	460	40	4	
13	0	0	0	0	514	0	0	481	40	4	
14	0	0	0	0	509	3	0	467	38	4	
15	0	0	0	0	504	206	0	513	40	4	
0	0	0	0	0	502	725	0	551	40	4	
1	0	0	0	0	518	1022	0	556	39	4	
2	0	0	0	0	514	1023	0	566	40	4	
3	0	0	0	0	463	1023	0	515	40	4	
4	0	0	0	0	513	1022	0	489	39	4	
5	0	0	0	0	531	1023	0	504	40	4	
6	0	0	0	0	439	1023	0	557	39	4	
7	0	0	0	0	513	1023	0	526	39	4	
8	0	0	0	0	519	1022	0	482	40	4	
9	0	0	0	0	508	1023	0	484	39	4	
10	0	0	0	0	501	1022	0	530	39	4	
11	0	0	0	0	495	1022	0	533	40	4	
12	0	0	0	0	496	830	0	476	39	4	
13	0	0	0	0	506	342	0	468	38	4	
14	0	0	0	0	504	0	0	521	40	4	
15	0	0	0	0	514	0	0	548	39	4	
0	0	0	0	0	500	0	0	480	39	4	
1	0	0	0	0	509	0	0	469	41	4	
2	0	0	0	0	509	0	0	512	39	4	
3	0	0	0	0	506	0	0	554	39	4	
4	0	0	0	0	513	0	0	551	41	4	
5	0	0	0	0	507	0	0	554	39	4	
6	0	0	0	0	524	0	0	483	39	4	
7	0	0	0	0	510	0	0	491	40	4	
8	0	0	0	0	544	0	0	526	39	4	
9	0	0	0	0	389	145	0	499	39	4	
10	0	0	0	0	577	548	0	506	40	4	
11	0	0	0	0	481	1023	0	532	39	4	
12	0	0	0	0	601	1023	0	519	40	4	
13	0	0	0	0	432	1023	0	531	40	4	
14	0	0	0	0	481	1023	0	532	38	4	
15	0	0	0	0	648	1023	0	527	40	4	
0	0	0	0	0	563	1023	0	556	40	4	
1	0	0	0	0	563	1023	0	525	39	4	
2	0	0	0	0	519	1023	0	519	39	4	
3	0	0	0	0	493	1022	0	539	40	4	
4	0	0	0	0	517	1022	0	502	39	4	
5	0	0	0	0	503	1022	0	501	40	4	
6	0	0	0	0	509	887	0	524	40	4	
7	0	0	0	0	510	505	0	518	39	4	
8	0	0	0	0	516	0	0	556	40	4	
9	0	0	0	0	521	0	0	527	40	4	
10	0	0	0	0	508	0	0	515	39	4	
11	0	0	0	0	485	0	0	553	40	4	
12	0	0	0	0	525	0	0	536	40	4	
13	0	0	0	0	502	0	0	551	39	4	
14	0	0	0	0	515	0	0	520	39	4	
15	0	0	0	0	503	0	0	522	40	4	
0	0	0	0	0	504	0	0	540	40	4	
1	0	0	0	0	499	0	0	519	40	4	
2	0	0	0	0	512	0	0	523	39	4	
3	0	0	0	0	507	130	0	502	39	4	
4	0	0	0	0	506	486	0	492	40	4	
5	0	0	0	0	497	1023	0	508	39	4	
6	0	0	0	0	512	1022	0	485	39	4	
7	0	0	0	0	504	1022	0	481	40	4	
8	0	0	0	0	493	1023	0	482	39	4	
9	0	0	0	0	509	1022	0	465	40	4	
10	0	0	0	0	505	1023	0	490	39	4	
11	0	0	0	0	507	1022	0	558	39	4	
12	0	0	0	0	507	1022	0	496	40	4	
13	0	0	0	0	508	1022	0	462	40	4	
14	0	0	0	0	500	1022	0	480	39	4	
15	0	0	0	0	502	1022	0	439	40	4	
0	0	0	0	0	502	898	0	422	40	4	
1	0	0	0	0	528	546	0	468	39	4	
2	0	0	0	0	489	0	0	503	39	4	
3	0	0	0	0	529	0	0	491	39	4	
4	0	0	0	0	407	0	0	523	40	4	
5	0	0	0	0	601	0	0	527	40	4	
6	0	0	0	0	438	0	0	494	39	4	
7	0	0	0	0	541	0	0	454	40	4	
8	0	0	0	0	363	0	0	483	40	4	
9	0	0	0	0	750	0	0	468	39	4	
10	0	0	0	0	386	0	0	459	39	4	
11	0	0	0	0	558	0	0	497	40	4	
12	0	0	0	0	556	0	0	462	39	4	
13	0	0	0	0	479	107	0	447	39	4	
14	0	0	0	0	505	427	0	533	40	4	
15	0	0	0	0	557	1022	0	527	39	4	
0	0	0	0	0	535	1023	0	555	39	4	
1	0	0	0	0	505	1023	0	491	40	4	
2	0	0	0	0	508	1023	0	472	39	4	
3	0	0	0	0	509	1023	0	476	39	4	
4	0	0	0	0	497	1023	0	535	40	4	
5	0	0	0	0	467	1022	0	513	39	4	
6	0	0	0	0	504	1022	0	500	39	4	
7	0	0	0	0	504	1023	0	466	40	4	
8	0	0	0	0	497	1022	0	478	39	4	
9	0	0	0	0	498	1022	0	566	40	4	
10	0	0	0	0	509	937	0	526	40	4	
11	0	0	0	0	508	643	0	481	39	4	
12	0	0	0	0	503	0	0	479	40	4	
13	0	0	0	0	511	0	0	488	40	4	
14	0	0	0	0	504	0	0	476	39	4	
15	0	0	0	0	509	0	0	498	40	4	
0	0	0	0	0	514	0	0	487	40	4	
1	0	0	0	0	501	0	0	482	39	4	
2	0	0	0	0	508	0	0	501	40	4	
3	0	0	0	0	501	0	0	475	39	4	
4	0	0	0	0	513	0	0	480	40	4	
5	0	0	0	0	513	0	0	498	40	4	
6	0	0	0	0	504	0	0	490	39	4	
7	0	0	0	0	512	94	0	517	39	4	
8	0	0	0	0	513	394	0	502	40	4	
9	0	0	0	0	502	1022	0	504	39	4	
10	0	0	0	0	515	1022	0	529	39	4	
11	0	0	0	0	508	1022	0	530	40	4	
12	0	0	0	0	518	1022	0	583	39	4	
13	0	0	0	0	511	1022	0	572	40	4	
14	0	0	0	0	491	1022	0	603	39	4	
15	0	0	0	0	535	1023	0	557	39	4	
0	0	0	0	0	526	1023	0	506	40	4	
1	0	0	0	0	329	1022	0	540	39	4	
2	0	0	0	0	481	1022	0	539	39	4	
3	0	0	0	0	590	1022	0	500	40	4	
4	0	0	0	0	592	928	0	495	40	4	
5	0	0	0	0	523	634	0	524	39	4	
6	0	0	0	0	695	0	0	496	39	4	
7	0	0	0	0	644	0	0	504	40	4	
8	0	0	0	0	559	0	0	505	40	4	
9	0	0	0	0	604	0	0	482	40	4	
10	0	0	0	0	486	0	0	569	39	4	
11	0	0	0	0	605	0	0	537	39	4	
12	0	0	0	0	533	0	0	480	40	4	
13	0	0	0	0	516	0	0	538	39	4	
14	0	0	0	0	489	0	0	542	39	4	
15	0	0	0	0	505	0	0	495	40	4	
0	0	0	0	0	509	0	0	501	40	4	
1	0	0	0	0	492	86	0	578	39	4	
2	0	0	0	0	508	363	0	549	39	4	
3	0	0	0	0	489	1022	0	547	39	4	
4	0	0	0	0	526	1023	0	507	40	4	
5	0	0	0	0	491	1023	0	516	40	4	
6	0	0	0	0	521	1022	0	533	39	4	
7	0	0	0	0	514	1022	0	566	39	4	
8	0	0	0	0	522	1023	0	579	40	4	
9	0	0	0	0	501	1023	0	553	39	4	
10	0	0	0	0	509	1023	0	558	39	4	
11	0	0	0	0	512	1022	0	519	39	4	
12	0	0	0	0	515	1022	0	464	40	4	
13	0	0	0	0	509	1022	0	455	39	4	
14	0	0	0	0	512	914	0	475	39	4	
15	0	0	0	0	518	597	0	472	39	4	
0	0	0	0	0	484	0	0	503	40	4	
1	0	0	0	0	487	0	0	489	39	4	
2	0	0	0	0	531	0	0	596	39	4	
3	0	0	0	0	510	0	0	564	40	4	
4	0	0	0	0	510	0	0	484	40	4	
5	0	0	0	0	512	0	0	490	39	4	
6	0	0	0	0	512	0	0	530	39	4	
7	0	0	0	0	513	0	0	519	40	4	
8	0	0	0	0	521	0	0	587	40	4	
9	0	0	0	0	556	0	0	579	40	4	
10	0	0	0	0	542	0	0	541	39	4	
11	0	0	0	0	320	94	0	499	39	4	
12	0	0	0	0	328	390	0	512	40	4	
13	0	0	0	0	506	1022	0	510	40	4	
14	0	0	0	0	593	1022	0	502	39	4	
15	0	0	0	0	595	1022	0	520	39	4	
0	0	0	0	0	238	1022	0	493	40	4	
1	0	0	0	0	611	1023	0	489	39	4	
2	0	0	0	0	474	1022	0	502	39	4	
3	0	0	0	0	412	1022	0	490	40	4	
4	0	0	0	0	531	1022	0	511	39	4	
5	0	0	0	0	497	1022	0	484	39	4	
6	0	0	0	0	501	1022	0	474	40	4	
7	0	0	0	0	505	1022	0	494	39	4	
8	0	0	0	0	506	897	0	469	40	4	
9	0	0	0	0	533	534	0	471	40	4	
10	0	0	0	0	498	0	0	484	39	4	
11	0	0	0	0	468	0	0	467	39	4	
12	0	0	0	0	516	0	0	511	40	4	
13	0	0	0	0	495	0	0	482	39	4	
14	0	0	0	0	515	0	0	495	39	4	
15	0	0	0	0	514	0	0	533	40	4	
0	0	0	0	0	503	0	0	534	39	4	
1	0	0	0	0	511	0	0	560	40	4	
2	0	0	0	0	509	0	0	542	39	4	
3	0	0	0	0	505	0	0	532	39	4	
4	0	0	0	0	507	0	0	556	40	4	
5	0	0	0	0	505	127	0	540	40	4	
6	0	0	0	0	508	490	0	538	39	4	
7	0	0	0	0	503	1022	0	534	40	4	
8	0	0	0	0	509	1022	0	512	40	4	
9	0	0	0	0	497	1022	0	530	39	4	
10	0	0	0	0	513	1022	0	584	39	4	
11	0	0	0	0	517	1022	0	524	40	4	
12	0	0	0	0	484	1022	0	487	40	4	
13	0	0	0	0	526	1023	0	470	40	4	
14	0	0	0	0	513	1022	0	503	39	4	
15	0	0	0	0	507	1022	0	493	39	4	
0	0	0	0	0	495	1022	0	525	40	4	
1	0	0	0	0	509	1022	0	512	39	4	
2	0	0	0	0	191	862	0	536	39	4	
3	0	0	0	0	607	425	0	569	40	4	
4	0	0	0	0	637	0	0	538	40	4	
5	0	0	0	0	729	0	0	536	39	4	
6	0	0	0	0	486	0	0	510	39	4	
7	0	0	0	0	425	0	0	496	40	4	
8	0	0	0	0	384	0	0	518	40	4	
9	0	0	0	0	559	0	0	558	39	4	
10	0	0	0	0	276	0	0	594	39	4	
11	0	0	0	0	498	0	0	547	39	4	
12	0	0	0	0	624	0	0	541	40	4	
13	0	0	0	0	525	0	0	476	40	4	
14	0	0	0	0	516	0	0	467	39	4	
15	0	0	0	0	497	156	0	552	39	4	
0	0	0	0	0	515	591	0	498	40	4	
1	0	0	0	0	517	1022	0	486	39	4	
2	0	0	0	0	507	1022	0	534	39	4	
3	0	0	0	0	503	1022	0	473	40	4	
4	0	0	0	0	504	1022	0	470	40	4	
5	0	0	0	0	520	1022	0	496	40	4	
6	0	0	0	0	515	1022	0	483	39	4	
7	0	0	0	0	504	1022	0	489	39	4	
8	0	0	0	0	510	1022	0	525	40	4	
9	0	0	0	0	503	1022	0	494	39	4	
10	0	0	0	0	510	1022	0	475	39	4	
11	0	0	0	0	504	1022	0	497	40	4	
12	0	0	0	0	509	856	0	566	39	4	
13	0	0	0	0	511	429	0	574	40	4	
14	0	0	0	0	505	0	0	595	39	4	
15	0	0	0	0	513	0	0	559	39	4	
0	0	0	0	0	504	0	0	504	40	4	
1	0	0	0	0	515	0	0	503	39	4	
2	0	0	0	0	520	0	0	486	39	4	
3	0	0	0	0	509	0	0	500	40	4	
4	0	0	0	0	508	0	0	490	40	4	
5	0	0	0	0	507	0	0	514	39	4	
6	0	0	0	0	496	0	0	502	39	4	
7	0	0	0	0	506	0	0	492	39	4	
8	0	0	0	0	698	0	0	505	40	4	
9	0	0	0	0	232	163	0	491	40	4	
10	0	0	0	0	760	597	0	528	39	4	
11	0	0	0	0	598	1022	0	504	40	4	
12	0	0	0	0	522	1022	0	491	40	4	
13	0	0	0	0	473	1022	0	526	39	4	
14	0	0	0	0	506	1023	0	503	39	4	
15	0	0	0	0	506	1022	0	563	39	4	
0	0	0	0	0	492	1022	0	575	39	4	
1	0	0	0	0	514	1022	0	604	40	4	
2	0	0	0	0	531	1022	0	562	39	4	
3	0	0	0	0	447	1022	0	554	39	4	
4	0	0	0	0	487	1022	0	471	40	4	
5	0	0	0	0	512	1022	0	467	39	4	
6	0	0	0	0	470	851	0	495	39	4	
7	0	0	0	0	520	403	0	476	40	4	
8	0	0	0	0	513	0	0	564	40	4	
9	0	0	0	0	504	0	0	525	39	4	
10	0	0	0	0	508	0	0	465	39	4	
11	0	0	0	0	504	0	0	455	39	4	
12	0	0	0	0	515	0	0	479	40	4	
13	0	0	0	0	510	0	0	477	39	4	
14	0	0	0	0	512	0	0	484	39	4	
15	0	0	0	0	461	0	0	487	40	4	
0	0	0	0	0	500	0	0	483	40	4	
1	0	0	0	0	523	0	0	508	39	4	
2	0	0	0	0	495	0	0	557	39	4	
3	0	0	0	0	516	171	0	574	39	4	
4	0	0	0	0	512	628	0	514	40	4	
5	0	0	0	0	500	1022	0	468	40	4	
6	0	0	0	0	503	1022	0	471	39	4	
7	0	0	0	0	491	1022	0	495	40	4	
8	0	0	0	0	522	1022	0	583	40	4	
9	0	0	0	0	505	1022	0	545	39	4	
10	0	0	0	0	509	1022	0	515	39	4	
11	0	0	0	0	512	1022	0	526	39	4	
12	0	0	0	0	505	1022	0	463	40	4	
13	0	0	0	0	513	1022	0	461	40	4	
14	0	0	0	0	486	1022	0	536	39	4	
15	0	0	0	0	512	1022	0	476	39	4	
0	0	0	0	0	518	845	0	507	40	4	
1	0	0	0	0	494	382	0	455	39	4	
2	0	0	0	0	507	0	0	465	39	4	
3	0	0	0	0	511	0	0	522	40	4	
4	0	0	0	0	518	0	0	528	40	4	
5	0	0	0	0	499	0	0	470	39	4	
6	0	0	0	0	513	0	0	462	39	4	
7	0	0	0	0	511	0	0	501	39	4	
8	0	0	0	0	508	0	0	550	40	4	
9	0	0	0	0	508	0	0	486	39	4	
10	0	0	0	0	511	0	0	475	39	4	
11	0	0	0	0	508	0	0	510	39	4	
12	0	0	0	0	509	0	0	535	40	4	
13	0	0	0	0	506	159	0	564	39	4	
14	0	0	0	0	507	599	0	510	39	4	
15	0	0	0	0	512	1022	0	508	40	4	
0	0	0	0	0	529	1022	0	536	40	4	
1	0	0	0	0	472	1022	0	513	39	4	
2	0	0	0	0	482	1022	0	508	39	4	
3	0	0	0	0	479	1022	0	515	39	4	
4	0	0	0	0	545	1023	0	498	40	4	
5	0	0	0	0	438	1022	0	515	39	4	
6	0	0	0	0	550	1022	0	493	39	4	
7	0	0	0	0	488	1022	0	494	39	4	
8	0	0	0	0	512	1022	0	522	40	4	
9	0	0	0	0	505	1022	0	508	39	4	
10	0	0	0	0	511	813	0	498	39	4	
11	0	0	0	0	512	290	0	505	39	4	
12	0	0	0	0	497	0	0	511	40	4	
13	0	0	0	0	524	0	0	542	39	4	
14	0	0	0	0	499	0	0	515	39	4	
15	0	0	0	0	520	0	0	503	40	4	
0	0	0	0	0	512	0	0	530	40	4	
1	0	0	0	0	506	0	0	508	40	4	
2	0	0	0	0	518	0	0	541	39	4	
3	0	0	0	0	513	0	0	536	39	5	
4	0	0	0	0	495	0	0	537	40	5	
5	0	0	0	0	492	0	0	558	40	5	
6	0	0	0	0	512	0	0	536	39	5	
7	0	0	0	0	517	198	0	527	39	5	
8	0	0	0	0	508	715	0	527	40	5	
9	0	0	0	0	506	1022	0	521	39	5	
10	0	0	0	0	504	1022	0	541	39	5	
11	0	0	0	0	510	1022	0	524	39	5	
12	0	0	0	0	508	1022	0	527	40	5	
13	0	0	0	0	505	1022	0	528	40	5	
14	0	0	0	0	510	1022	0	536	39	5	
15	0	0	0	0	508	1022	0	578	39	5	
0	0	0	0	0	507	1022	0	581	40	5	
1	0	0	0	0	510	1022	0	546	39	5	
2	0	0	0	0	506	1022	0	525	39	5	
3	0	0	0	0	504	1021	0	468	39	5	
4	0	0	0	0	501	801	0	475	40	5	
5	0	0	0	0	511	269	0	527	39	5	
6	0	0	0	0	510	0	0	493	39	5	
7	0	0	0	0	509	0	0	545	40	5	
8	0	0	0	0	508	0	0	556	40	5	
9	0	0	0	0	504	0	0	537	40	5	
10	0	0	0	0	483	0	0	537	39	5	
11	0	0	0	0	523	0	0	472	39	5	
12	0	0	0	0	531	0	0	472	40	5	
13	0	0	0	0	655	0	0	495	40	5	
14	0	0	0	0	595	0	0	494	39	5	
15	0	0	0	0	529	0	0	560	40	5	
0	0	0	0	0	566	0	0	572	40	5	
1	0	0	0	0	523	141	0	504	40	5	
2	0	0	0	0	511	524	0	492	39	5	
3	0	0	0	0	508	1022	0	475	39	5	
4	0	0	0	0	493	1022	0	527	39	5	
5	0	0	0	0	517	1022	0	527	40	5	
6	0	0	0	0	494	1022	0	464	40	5	
7	0	0	0	0	532	1022	0	466	38	5	
8	0	0	0	0	483	1022	0	492	40	5	
9	0	0	0	0	502	1022	0	486	40	5	
10	0	0	0	0	512	1022	0	550	39	5	
11	0	0	0	0	507	1022	0	507	39	5	
12	0	0	0	0	499	1022	0	556	40	5	
13	0	0	0	0	508	1022	0	472	40	5	
14	0	0	0	0	507	851	0	465	39	5	
15	0	0	0	0	511	426	0	500	40	5	
0	0	0	0	0	507	0	0	487	40	5	
1	0	0	0	0	503	0	0	476	39	5	
2	0	0	0	0	501	0	0	489	39	5	
3	0	0	0	0	505	0	0	482	40	5	
4	0	0	0	0	505	0	0	508	39	5	
5	0	0	0	0	508	0	0	485	40	5	
6	0	0	0	0	512	0	0	475	39	5	
7	0	0	0	0	505	0	0	488	39	5	
8	0	0	0	0	507	0	0	477	40	5	
9	0	0	0	0	508	0	0	471	40	5	
10	0	0	0	0	508	0	0	486	39	5	
11	0	0	0	0	507	136	0	478	40	5	
12	0	0	0	0	505	508	0	512	40	5	
13	0	0	0	0	511	1023	0	484	39	5	
14	0	0	0	0	507	1022	0	491	39	5	
15	0	0	0	0	508	1022	0	585	40	5	
0	0	0	0	0	507	1022	0	543	40	5	
1	0	0	0	0	497	1022	0	588	40	5	
2	0	0	0	0	512	1022	0	511	39	5	
3	0	0	0	0	513	1022	0	493	39	5	
4	0	0	0	0	508	1022	0	515	40	5	
5	0	0	0	0	510	1022	0	503	39	5	
6	0	0	0	0	502	1022	0	504	39	5	
7	0	0	0	0	513	1022	0	517	40	5	
8	0	0	0	0	510	869	0	516	40	5	
9	0	0	0	0	510	467	0	585	39	5	
10	0	0	0	0	502	0	0	615	39	5	
11	0	0	0	0	515	0	0	555	39	5	
12	0	0	0	0	512	0	0	518	40	5	
13	0	0	0	0	514	0	0	472	39	5	
14	0	0	0	0	515	0	0	459	39	5	
15	0	0	0	0	509	0	0	464	39	5	
0	0	0	0	0	509	0	0	472	40	5	
1	0	0	0	0	510	0	0	511	39	5	
2	0	0	0	0	508	0	0	492	39	5	
3	0	0	0	0	506	0	0	509	39	5	
4	0	0	0	0	512	0	0	583	40	5	
5	0	0	0	0	504	204	0	534	39	5	
6	0	0	0	0	511	696	0	498	39	5	
7	0	0	0	0	515	1022	0	498	40	5	
8	0	0	0	0	515	1022	0	525	40	5	
9	0	0	0	0	502	1022	0	598	39	5	
10	0	0	0	0	508	1022	0	541	39	5	
11	0	0	0	0	516	1022	0	500	40	5	
12	0	0	0	0	507	1022	0	503	40	5	
13	0	0	0	0	506	1023	0	555	40	5	
14	0	0	0	0	505	1022	0	526	39	5	
15	0	0	0	0	508	1022	0	577	40	5	
0	0	0	0	0	504	1022	0	481	40	5	
1	0	0	0	0	510	1022	0	467	39	5	
2	0	0	0	0	509	823	0	510	39	5	
3	0	0	0	0	509	343	0	559	39	5	
4	0	0	0	0	505	0	0	515	40	5	
5	0	0	0	0	506	0	0	468	40	5	
6	0	0	0	0	512	0	0	468	39	5	
7	0	0	0	0	501	0	0	504	39	5	
8	0	0	0	0	510	0	0	534	40	5	
9	0	0	0	0	505	0	0	544	39	5	
10	0	0	0	0	504	0	0	484	39	5	
11	0	0	0	0	503	0	0	488	39	5	
12	0	0	0	0	507	0	0	557	40	5	
13	0	0	0	0	507	0	0	546	39	5	
14	0	0	0	0	510	0	0	502	39	5	
15	0	0	0	0	504	165	0	490	39	5	
0	0	0	0	0	511	566	0	519	40	5	
1	0	0	0	0	506	1022	0	505	39	5	
2	0	0	0	0	503	1022	0	508	39	5	
3	0	0	0	0	508	1022	0	529	39	5	
4	0	0	0	0	499	1022	0	496	40	5	
5	0	0	0	0	509	1022	0	502	39	5	
6	0	0	0	0	504	1022	0	508	39	5	
7	0	0	0	0	508	1022	0	499	40	5	
8	0	0	0	0	502	1022	0	524	40	5	
9	0	0	0	0	504	1022	0	495	39	5	
10	0	0	0	0	510	1022	0	508	39	5	
11	0	0	0	0	508	1022	0	543	39	5	
12	0	0	0	0	512	863	0	530	40	5	
13	0	0	0	0	501	449	0	551	39	5	
14	0	0	0	0	509	0	0	535	39	5	
15	0	0	0	0	507	0	0	524	39	5	
0	0	0	0	0	512	0	0	568	40	5	
1	0	0	0	0	509	0	0	532	39	5	
2	0	0	0	0	505	0	0	530	39	5	
3	0	0	0	0	505	0	0	555	39	5	
4	0	0	0	0	512	0	0	544	40	5	
5	0	0	0	0	504	0	0	587	39	5	
6	0	0	0	0	511	0	0	575	39	5	
7	0	0	0	0	504	0	0	561	39	5	
8	0	0	0	0	504	0	0	549	40	5	
9	0	0	0	0	508	167	0	523	39	5	
10	0	0	0	0	509	570	0	504	39	5	
11	0	0	0	0	507	1022	0	491	40	5	
12	0	0	0	0	516	1022	0	481	40	5	
13	0	0	0	0	503	1022	0	503	39	5	
14	0	0	0	0	511	1022	0	474	39	5	
15	0	0	0	0	511	1022	0	470	39	5	
0	0	0	0	0	509	1022	0	484	40	5	
1	0	0	0	0	507	1022	0	483	39	5	
2	0	0	0	0	509	1022	0	464	39	5	
3	0	0	0	0	509	1022	0	479	40	5	
4	0	0	0	0	505	1022	0	479	40	5	
5	0	0	0	0	514	1022	0	543	40	5	
6	0	0	0	0	505	883	0	556	39	5	
7	0	0	0	0	514	532	0	534	39	5	
8	0	0	0	0	504	0	0	514	40	5	
9	0	0	0	0	507	0	0	515	39	5	
10	0	0	0	0	510	0	0	485	39	5	
11	0	0	0	0	524	0	0	505	39	5	
12	0	0	0	0	514	0	0	444	40	5	
13	0	0	0	0	516	0	0	456	39	5	
14	0	0	0	0	510	0	0	479	40	5	
15	0	0	0	0	508	0	0	462	40	5	
0	0	0	0	0	512	0	0	464	39	5	
1	0	0	0	0	497	0	0	470	40	5	
2	0	0	0	0	519	0	0	477	40	5	
3	0	0	0	0	495	129	0	504	39	5	
4	0	0	0	0	524	429	0	569	40	5	
5	0	0	0	0	494	1022	0	567	40	5	
6	0	0	0	0	528	1022	0	516	39	5	
7	0	0	0	0	505	1022	0	471	39	5	
8	0	0	0	0	516	1022	0	444	40	5	
9	0	0	0	0	510	1022	0	467	40	5	
10	0	0	0	0	502	1022	0	455	39	5	
11	0	0	0	0	507	1022	0	530	39	5	
12	0	0	0	0	508	1022	0	512	40	5	
13	0	0	0	0	510	1022	0	525	39	5	
14	0	0	0	0	511	1022	0	518	39	5	
15	0	0	0	0	502	1022	0	484	39	5	
0	0	0	0	0	511	892	0	490	40	5	
1	0	0	0	0	511	561	0	500	39	5	
2	0	0	0	0	504	0	0	486	39	5	
3	0	0	0	0	511	0	0	487	39	5	
4	0	0	0	0	504	0	0	513	41	5	
5	0	0	0	0	506	0	0	507	39	5	
6	0	0	0	0	508	0	0	547	39	5	
7	0	0	0	0	507	0	0	523	39	5	
8	0	0	0	0	516	0	0	514	40	5	
9	0	0	0	0	503	0	0	547	40	5	
10	0	0	0	0	507	0	0	517	39	5	
11	0	0	0	0	512	0	0	514	40	5	
12	0	0	0	0	499	0	0	534	40	5	
13	0	0	0	0	508	163	0	515	39	5	
14	0	0	0	0	513	544	0	595	39	5	
15	0	0	0	0	507	1022	0	603	40	5	
0	0	0	0	0	509	1022	0	581	40	5	
1	0	0	0	0	505	1022	0	521	39	5	
2	0	0	0	0	503	1023	0	480	39	5	
3	0	0	0	0	513	1022	0	482	39	5	
4	0	0	0	0	513	1022	0	496	40	5	
5	0	0	0	0	510	1022	0	487	39	5	
6	0	0	0	0	512	1022	0	518	39	5	
7	0	0	0	0	502	1022	0	535	39	5	
8	0	0	0	0	504	1022	0	602	40	5	
9	0	0	0	0	514	1022	0	565	40	5	
10	0	0	0	0	503	862	0	537	39	5	
11	0	0	0	0	512	476	0	523	39	5	
12	0	0	0	0	506	0	0	505	40	5	
13	0	0	0	0	507	0	0	522	39	5	
14	0	0	0	0	509	0	0	468	39	5	
15	0	0	0	0	497	0	0	457	40	5	
0	0	0	0	0	516	0	0	464	40	5	
1	0	0	0	0	506	0	0	444	39	5	
2	0	0	0	0	508	0	0	513	39	5	
3	0	0	0	0	489	0	0	473	39	5	
4	0	0	0	0	503	0	0	430	40	5	
5	0	0	0	0	515	0	0	435	39	5	
6	0	0	0	0	515	0	0	498	39	5	
7	0	0	0	0	504	175	0	510	40	5	
8	0	0	0	0	507	574	0	459	40	5	
9	0	0	0	0	508	1022	0	454	39	5	
10	0	0	0	0	506	1022	0	516	39	5	
11	0	0	0	0	505	1022	0	499	39	5	
12	0	0	0	0	509	1022	0	519	40	5	
13	0	0	0	0	504	1022	0	539	39	5	
14	0	0	0	0	509	1022	0	475	39	5	
15	0	0	0	0	502	1022	0	478	39	5	
0	0	0	0	0	508	1022	0	509	40	5	
1	0	0	0	0	508	1022	0	483	39	5	
2	0	0	0	0	503	1022	0	473	39	5	
3	0	0	0	0	509	1022	0	512	39	5	
4	0	0	0	0	504	866	0	492	39	5	
5	0	0	0	0	506	478	0	481	40	5	
6	0	0	0	0	510	0	0	494	39	5	
7	0	0	0	0	508	0	0	547	39	5	
8	0	0	0	0	508	0	0	561	40	5	
9	0	0	0	0	500	0	0	491	39	5	
10	0	0	0	0	509	0	0	468	39	5	
11	0	0	0	0	507	0	0	502	39	5	
12	0	0	0	0	509	0	0	496	40	5	
13	0	0	0	0	510	0	0	506	40	5	
14	0	0	0	0	509	0	0	518	39	5	
15	0	0	0	0	512	0	0	502	39	5	
0	0	0	0	0	500	0	0	500	40	5	
1	0	0	0	0	517	148	0	504	39	5	
2	0	0	0	0	502	506	0	491	39	5	
3	0	0	0	0	511	1022	0	503	39	5	
4	0	0	0	0	509	1022	0	524	40	5	
5	0	0	0	0	521	1022	0	510	39	5	
6	0	0	0	0	489	1022	0	531	39	5	
7	0	0	0	0	492	1022	0	507	39	5	
8	0	0	0	0	487	1022	0	505	40	5	
9	0	0	0	0	511	1022	0	537	39	5	
10	0	0	0	0	516	1022	0	494	39	5	
11	0	0	0	0	517	1022	0	496	39	5	
12	0	0	0	0	509	1022	0	499	40	5	
13	0	0	0	0	509	1022	0	487	40	5	
14	0	0	0	0	513	882	0	526	39	5	
15	0	0	0	0	508	532	0	511	39	5	
0	0	0	0	0	529	0	0	514	40	5	
1	0	0	0	0	519	0	0	527	40	5	
2	0	0	0	0	522	0	0	533	39	5	
3	0	0	0	0	498	0	0	560	40	5	
4	0	0	0	0	512	0	0	536	40	5	
5	0	0	0	0	515	0	0	530	39	5	
6	0	0	0	0	524	0	0	557	39	5	
7	0	0	0	0	485	0	0	537	39	5	
8	0	0	0	0	536	0	0	613	40	5	
9	0	0	0	0	536	0	0	608	40	5	
10	0	0	0	0	470	0	0	592	39	5	
11	0	0	0	0	534	143	0	558	39	5	
12	0	0	0	0	474	481	0	568	40	5	
13	0	0	0	0	520	1022	0	512	39	5	
14	0	0	0	0	507	1022	0	498	39	5	
15	0	0	0	0	515	1022	0	510	39	5	
0	0	0	0	0	509	1023	0	502	40	5	
1	0	0	0	0	506	1022	0	551	39	5	
2	0	0	0	0	508	1022	0	600	39	5	
3	0	0	0	0	521	1022	0	615	39	5	
4	0	0	0	0	463	1022	0	586	40	5	
5	0	0	0	0	519	1022	0	517	39	5	
6	0	0	0	0	512	1022	0	507	39	5	
7	0	0	0	0	501	1022	0	506	39	5	
8	0	0	0	0	505	863	0	523	40	5	
9	0	0	0	0	506	473	0	511	39	5	
10	0	0	0	0	501	0	0	555	39	5	
11	0	0	0	0	487	0	0	529	39	5	
12	0	0	0	0	515	0	0	573	40	5	
13	0	0	0	0	509	0	0	596	40	5	
14	0	0	0	0	487	0	0	557	39	5	
15	0	0	0	0	528	0	0	494	39	5	
0	0	0	0	0	505	0	0	495	39	5	
1	0	0	0	0	535	0	0	574	40	5	
2	0	0	0	0	471	0	0	552	40	5	
3	0	0	0	0	531	0	0	555	40	5	
4	0	0	0	0	527	0	0	483	39	5	
5	0	0	0	0	472	180	0	480	39	5	
6	0	0	0	0	503	592	0	543	40	5	
7	0	0	0	0	501	1022	0	529	39	5	
8	0	0	0	0	508	1023	0	540	39	5	
9	0	0	0	0	503	1022	0	465	40	5	
10	0	0	0	0	510	1022	0	455	39	5	
11	0	0	0	0	502	1022	0	482	39	5	
12	0	0	0	0	511	1022	0	467	40	5	
13	0	0	0	0	502	1022	0	493	39	5	
14	0	0	0	0	507	1022	0	472	39	5	
15	0	0	0	0	499	1022	0	478	40	5	
0	0	0	0	0	510	1022	0	496	40	5	
1	0	0	0	0	510	1022	0	478	39	5	
2	0	0	0	0	506	868	0	485	40	5	
3	0	0	0	0	503	487	0	496	39	5	
4	0	0	0	0	502	0	0	485	39	5	
5	0	0	0	0	501	0	0	511	40	5	
6	0	0	0	0	513	0	0	489	39	5	
7	0	0	0	0	512	0	0	481	39	5	
8	0	0	0	0	518	0	0	497	40	5	
9	0	0	0	0	485	0	0	476	39	5	
10	0	0	0	0	543	0	0	500	39	5	
11	0	0	0	0	517	0	0	480	40	5	
12	0	0	0	0	505	0	0	470	40	5	
13	0	0	0	0	505	0	0	505	39	5	
14	0	0	0	0	519	0	0	572	39	5	
15	0	0	0	0	497	137	0	562	39	5	
0	0	0	0	0	517	460	0	556	40	5	
1	0	0	0	0	461	1022	0	501	40	5	
2	0	0	0	0	515	1022	0	482	39	5	
3	0	0	0	0	512	1022	0	461	40	5	
4	0	0	0	0	507	1022	0	473	40	5	
5	0	0	0	0	510	1022	0	518	39	5	
6	0	0	0	0	496	1023	0	589	39	5	
7	0	0	0	0	504	1022	0	560	40	5	
8	0	0	0	0	509	1022	0	548	40	5	
9	0	0	0	0	503	1022	0	488	40	5	
10	0	0	0	0	508	1022	0	482	39	5	
11	0	0	0	0	511	1022	0	565	39	5	
12	0	0	0	0	498	875	0	547	40	5	
13	0	0	0	0	505	523	0	549	39	5	
14	0	0	0	0	502	0	0	492	39	5	
15	0	0	0	0	506	0	0	491	40	5	
0	0	0	0	0	513	0	0	500	40	5	
1	0	0	0	0	520	0	0	491	39	5	
2	0	0	0	0	507	0	0	524	39	5	
3	0	0	0	0	487	0	0	510	39	5	
4	0	0	0	0	484	0	0	502	40	5	
5	0	0	0	0	536	0	0	514	39	5	
6	0	0	0	0	506	0	0	496	39	5	
7	0	0	0	0	436	0	0	576	39	5	
8	0	0	0	0	525	0	0	593	40	5	
9	0	0	0	0	575	149	0	529	39	5	
10	0	0	0	0	520	512	0	472	39	5	
11	0	0	0	0	512	1022	0	521	39	5	
12	0	0	0	0	504	1022	0	546	40	5	
13	0	0	0	0	508	1022	0	518	40	5	
14	0	0	0	0	505	1022	0	473	39	5	
15	0	0	0	0	502	1023	0	480	40	5	
0	0	0	0	0	503	1023	0	568	40	5	
1	0	0	0	0	511	1022	0	548	39	5	
2	0	0	0	0	504	1022	0	531	39	5	
3	0	0	0	0	507	1022	0	476	39	5	
4	0	0	0	0	499	1022	0	480	40	5	
5	0	0	0	0	508	1022	0	499	40	5	
6	0	0	0	0	509	875	0	528	39	5	
7	0	0	0	0	519	510	0	551	39	5	
8	0	0	0	0	517	0	0	496	40	5	
9	0	0	0	0	503	0	0	490	39	5	
10	0	0	0	0	514	0	0	568	39	5	
11	0	0	0	0	510	0	0	516	40	5	
12	0	0	0	0	532	0	0	471	40	5	
13	0	0	0	0	534	0	0	478	39	5	
14	0	0	0	0	490	0	0	483	39	5	
15	0	0	0	0	508	0	0	480	39	5	
0	0	0	0	0	536	0	0	514	40	5	
1	0	0	0	0	484	0	0	491	39	5	
2	0	0	0	0	509	0	0	483	39	5	
3	0	0	0	0	504	162	0	492	39	5	
4	0	0	0	0	504	526	0	463	40	5	
5	0	0	0	0	504	1022	0	476	39	5	
6	0	0	0	0	510	1022	0	461	39	5	
7	0	0	0	0	510	1022	0	467	39	5	
8	0	0	0	0	500	1022	0	486	40	5	
9	0	0	0	0	504	1023	0	460	40	5	
10	0	0	0	0	513	1022	0	467	39	5	
11	0	0	0	0	502	1022	0	472	39	5	
12	0	0	0	0	503	1022	0	462	40	5	
13	0	0	0	0	500	1022	0	504	39	5	
14	0	0	0	0	504	1022	0	479	39	5	
15	0	0	0	0	505	1022	0	470	40	5	
0	0	0	0	0	506	886	0	506	40	5	
1	0	0	0	0	510	556	0	493	40	5	
2	0	0	0	0	508	0	0	548	39	5	
3	0	0	0	0	509	0	0	528	39	5	
4	0	0	0	0	505	0	0	530	40	5	
5	0	0	0	0	535	0	0	556	39	5	
6	0	0	0	0	468	0	0	537	39	5	
7	0	0	0	0	488	0	0	528	40	5	
8	0	0	0	0	447	0	0	534	40	5	
9	0	0	0	0	528	0	0	541	39	5	
10	0	0	0	0	515	0	0	565	39	5	
11	0	0	0	0	511	0	0	591	39	5	
12	0	0	0	0	507	0	0	627	40	5	
13	0	0	0	0	504	139	0	567	40	5	
14	0	0	0	0	508	457	0	498	39	5	
15	0	0	0	0	501	1022	0	476	40	5	
0	0	0	0	0	505	1022	0	499	40	5	
1	0	0	0	0	501	1022	0	468	39	5	
2	0	0	0	0	507	1022	0	455	39	5	
3	0	0	0	0	497	1022	0	471	40	5	
4	0	0	0	0	510	1023	0	442	40	5	
5	0	0	0	0	504	1022	0	440	39	5	
6	0	0	0	0	504	1022	0	497	39	5	
7	0	0	0	0	503	1022	0	560	39	5	
8	0	0	0	0	508	1022	0	523	40	5	
9	0	0	0	0	505	1022	0	457	39	5	
10	0	0	0	0	486	883	0	448	39	5	
11	0	0	0	0	496	550	0	481	39	5	
12	0	0	0	0	472	0	0	518	40	5	
13	0	0	0	0	530	0	0	564	39	5	
14	0	0	0	0	488	0	0	536	39	5	
15	0	0	0	0	557	0	0	480	39	5	
0	0	0	0	0	506	0	0	475	40	5	
1	0	0	0	0	517	0	0	491	39	5	
2	0	0	0	0	492	0	0	487	39	5	
3	0	0	0	0	515	0	0	514	39	5	
4	0	0	0	0	505	0	0	496	40	5	
5	0	0	0	0	505	0	0	568	40	5	
6	0	0	0	0	511	0	0	575	39	5	
7	0	0	0	0	502	155	0	496	39	5	
8	0	0	0	0	505	488	0	490	40	5	
9	0	0	0	0	509	1022	0	515	39	5	
10	0	0	0	0	510	1023	0	486	39	5	
11	0	0	0	0	508	1022	0	585	40	5	
12	0	0	0	0	506	1022	0	540	40	5	
13	0	0	0	0	501	1022	0	472	39	5	
14	0	0	0	0	504	1022	0	463	39	5	
15	0	0	0	0	504	1022	0	496	39	5	
0	0	0	0	0	506	1022	0	475	40	5	
1	0	0	0	0	510	1022	0	468	39	5	
2	0	0	0	0	503	1022	0	497	39	5	
3	0	0	0	0	512	1022	0	491	39	5	
4	0	0	0	0	496	875	0	496	40	5	
5	0	0	0	0	578	521	0	497	39	5	
6	0	0	0	0	531	0	0	491	39	5	
7	0	0	0	0	443	0	0	519	39	5	
8	0	0	0	0	509	0	0	504	40	5	
9	0	0	0	0	484	0	0	506	40	5	
10	0	0	0	0	511	0	0	523	39	5	
11	0	0	0	0	503	0	0	553	39	5	
12	0	0	0	0	502	0	0	580	40	5	
13	0	0	0	0	505	0	0	599	39	5	
14	0	0	0	0	510	0	0	572	39	5	
15	0	0	0	0	499	0	0	522	40	5	
0	0	0	0	0	510	0	0	518	40	5	
1	0	0	0	0	506	149	0	548	39	5	
2	0	0	0	0	511	478	0	568	39	5	
3	0	0	0	0	497	1022	0	623	39	5	
4	0	0	0	0	508	1022	0	535	40	5	
5	0	0	0	0	499	1023	0	524	40	5	
6	0	0	0	0	503	1022	0	545	39	5	
7	0	0	0	0	502	1022	0	540	40	5	
8	0	0	0	0	514	1022	0	543	40	5	
9	0	0	0	0	503	1022	0	563	39	5	
10	0	0	0	0	489	1022	0	547	39	5	
11	0	0	0	0	510	1022	0	628	40	5	
12	0	0	0	0	523	1022	0	559	40	5	
13	0	0	0	0	467	1022	0	523	39	5	
14	0	0	0	0	400	867	0	556	39	5	
15	0	0	0	0	523	508	0	593	39	5	
0	0	0	0	0	531	0	0	599	40	5	
1	0	0	0	0	505	0	0	512	39	5	
2	0	0	0	0	509	0	0	501	39	5	
3	0	0	0	0	507	0	0	527	39	5	
4	0	0	0	0	508	0	0	558	40	5	
5	0	0	0	0	498	0	0	550	39	5	
6	0	0	0	0	501	0	0	486	39	5	
7	0	0	0	0	508	0	0	487	39	5	
8	0	0	0	0	505	0	0	524	40	5	
9	0	0	0	0	486	0	0	558	39	5	
10	0	0	0	0	512	0	0	476	39	5	
11	0	0	0	0	505	130	0	475	40	5	
12	0	0	0	0	504	441	0	509	40	5	
13	0	0	0	0	507	1022	0	560	39	5	
14	0	0	0	0	506	1022	0	512	39	5	
15	0	0	0	0	501	1023	0	483	40	5	
0	0	0	0	0	527	1022	0	484	40	5	
1	0	0	0	0	492	1022	0	526	39	5	
2	0	0	0	0	476	1022	0	539	39	5	
3	0	0	0	0	466	1022	0	538	39	5	
4	0	0	0	0	464	1022	0	486	40	5	
5	0	0	0	0	503	1022	0	483	39	5	
6	0	0	0	0	518	1022	0	499	39	5	
7	0	0	0	0	494	1022	0	494	40	5	
8	0	0	0	0	506	839	0	493	40	5	
9	0	0	0	0	508	401	0	494	39	5	
10	0	0	0	0	505	0	0	481	39	5	
11	0	0	0	0	502	0	0	504	39	5	
12	0	0	0	0	500	0	0	495	40	5	
13	0	0	0	0	508	0	0	503	39	5	
14	0	0	0	0	505	0	0	514	39	5	
15	0	0	0	0	498	0	0	495	39	5	
0	0	0	0	0	507	0	0	499	40	5	
1	0	0	0	0	505	0	0	517	40	5	
2	0	0	0	0	505	0	0	491	39	5	
3	0	0	0	0	505	0	0	524	39	5	
4	0	0	0	0	507	0	0	488	40	5	
5	0	0	0	0	510	147	0	474	39	5	
6	0	0	0	0	504	497	0	496	39	5	
7	0	0	0	0	507	1022	0	479	39	5	
8	0	0	0	0	505	1022	0	524	40	5	
9	0	0	0	0	507	1022	0	503	39	5	
10	0	0	0	0	509	1023	0	521	39	5	
11	0	0	0	0	505	1022	0	532	39	5	
12	0	0	0	0	508	1022	0	510	40	5	
13	0	0	0	0	506	1022	0	514	39	5	
14	0	0	0	0	505	1022	0	512	39	5	
15	0	0	0	0	504	1022	0	500	39	5	
0	0	0	0	0	508	1022	0	525	40	5	
1	0	0	0	0	504	1022	0	514	39	5	
2	0	0	0	0	506	883	0	517	39	5	
3	0	0	0	0	505	512	0	524	39	5	
4	0	0	0	0	505	0	0	513	40	5	
5	0	0	0	0	507	0	0	530	39	5	
6	0	0	0	0	506	0	0	538	39	5	
7	0	0	0	0	505	0	0	544	39	5	
8	0	0	0	0	505	0	0	584	40	5	
9	0	0	0	0	508	0	0	560	39	5	
10	0	0	0	0	508	0	0	511	39	5	
11	0	0	0	0	505	0	0	503	39	5	
12	0	0	0	0	504	0	0	482	40	4	
13	0	0	0	0	511	0	0	468	39	4	
14	0	0	0	0	507	0	0	487	39	4	
15	0	0	0	0	508	0	0	476	40	4	
0	0	0	0	0	510	0	0	563	39	4	
1	0	0	0	0	504	0	0	568	40	3	
2	0	0	0	0	508	0	0	542	39	3	
3	0	0	0	0	507	0	0	472	40	3	
4	0	0	0	0	504	0	0	466	40	3	
5	0	0	0	0	504	0	0	503	40	3	
6	0	0	0	0	511	0	0	477	39	3	
7	0	0	0	0	504	0	0	483	39	4	
8	0	0	0	0	507	0	0	575	40	4	
9	0	0	0	0	507	229	0	543	39	4	
10	0	0	0	0	507	870	0	528	39	4	
11	0	0	0	0	507	1022	0	503	39	4	
12	0	0	0	0	508	1022	0	492	40	4	
13	0	0	0	0	507	1022	0	513	40	4	
14	0	0	0	0	508	1022	0	449	39	4	
15	0	0	0	0	506	1022	0	444	39	4	
0	0	0	0	0	512	1022	0	475	40	4	
1	0	0	0	0	504	1022	0	459	39	4	
2	0	0	0	0	511	1022	0	526	39	4	
3	0	0	0	0	509	1022	0	543	39	4	
4	0	0	0	0	500	1022	0	475	40	4	
5	0	0	0	0	507	1022	0	475	39	4	
6	0	0	0	0	507	1022	0	518	39	4	
7	0	0	0	0	506	1022	0	541	39	4	
8	0	0	0	0	510	829	0	492	40	4	
9	0	0	0	0	508	353	0	483	40	4	
10	0	0	0	0	508	0	0	514	39	4	
11	0	0	0	0	504	0	0	532	40	4	
12	0	0	0	0	511	0	0	510	40	4	
13	0	0	0	0	507	0	0	475	39	4	
14	0	0	0	0	510	0	0	480	39	4	
15	0	0	0	0	506	0	0	488	39	4	
0	0	0	0	0	507	0	0	483	40	4	
1	0	0	0	0	508	0	0	515	39	4	
2	0	0	0	0	510	0	0	487	39	4	
3	0	0	0	0	513	174	0	480	39	4	
4	0	0	0	0	504	681	0	499	40	4	
5	0	0	0	0	509	1022	0	483	39	4	
6	0	0	0	0	509	1022	0	498	39	4	
7	0	0	0	0	510	1022	0	467	39	4	
8	0	0	0	0	509	1022	0	465	40	4	
9	0	0	0	0	506	1022	0	484	39	4	
10	0	0	0	0	510	1022	0	466	39	4	
11	0	0	0	0	508	1022	0	518	40	4	
12	0	0	0	0	509	1022	0	551	40	4	
13	0	0	0	0	505	1022	0	564	40	4	
14	0	0	0	0	505	1022	0	551	39	4	
15	0	0	0	0	505	1022	0	494	39	4	
0	0	0	0	0	511	994	0	462	40	4	
1	0	0	0	0	508	828	0	483	39	4	
2	0	0	0	0	508	256	0	462	39	4	
3	0	0	0	0	509	0	0	535	39	4	
4	0	0	0	0	523	0	0	495	40	4	
5	0	0	0	0	507	0	0	439	40	4	
6	0	0	0	0	506	0	0	434	39	4	
7	0	0	0	0	502	0	0	451	39	4	
8	0	0	0	0	514	0	0	450	40	4	
9	0	0	0	0	506	0	0	501	39	4	
10	0	0	0	0	512	0	0	473	39	4	
11	0	0	0	0	511	0	0	502	39	4	
12	0	0	0	0	505	0	0	559	40	4	
13	0	0	0	0	499	92	0	536	40	4	
14	0	0	0	0	504	368	0	542	39	4	
15	0	0	0	0	489	1022	0	492	39	4	
0	0	0	0	0	513	1022	0	508	40	4	
1	0	0	0	0	505	1022	0	594	39	4	
2	0	0	0	0	509	1023	0	554	39	4	
3	0	0	0	0	509	1022	0	527	39	4	
4	0	0	0	0	509	1022	0	534	40	4	
5	0	0	0	0	510	1022	0	540	39	4	
6	0	0	0	0	512	1022	0	495	39	4	
7	0	0	0	0	503	1022	0	543	39	4	
8	0	0	0	0	505	1022	0	546	40	4	
9	0	0	0	0	511	1022	0	491	39	4	
10	0	0	0	0	496	821	0	487	39	4	
11	0	0	0	0	504	271	0	497	39	4	
12	0	0	0	0	514	0	0	482	40	4	
13	0	0	0	0	491	0	0	510	39	4	
14	0	0	0	0	513	0	0	491	39	4	
15	0	0	0	0	506	0	0	487	39	4	
0	0	0	0	0	509	0	0	535	40	4	
1	0	0	0	0	495	0	0	562	39	4	
2	0	0	0	0	516	0	0	573	39	4	
3	0	0	0	0	514	0	0	518	39	4	
4	0	0	0	0	507	0	0	499	40	4	
5	0	0	0	0	508	0	0	533	39	4	
6	0	0	0	0	512	0	0	530	39	4	
7	0	0	0	0	505	149	0	574	39	4	
8	0	0	0	0	508	551	0	581	40	4	
9	0	0	0	0	508	1022	0	582	39	4	
10	0	0	0	0	492	1022	0	543	39	4	
11	0	0	0	0	507	1022	0	475	40	4	
12	0	0	0	0	523	1022	0	533	40	4	
13	0	0	0	0	523	1022	0	521	39	4	
14	0	0	0	0	516	1022	0	462	39	4	
15	0	0	0	0	492	1022	0	466	39	4	
0	0	0	0	0	494	1022	0	482	40	4	
1	0	0	0	0	521	1022	0	453	39	4	
2	0	0	0	0	499	1022	0	497	39	4	
3	0	0	0	0	514	964	0	499	39	4	
4	0	0	0	0	516	631	0	495	40	4	
5	0	0	0	0	497	0	0	525	39	4	
6	0	0	0	0	501	0	0	507	39	4	
7	0	0	0	0	505	0	0	513	39	4	
8	0	0	0	0	513	0	0	527	40	4	
9	0	0	0	0	494	0	0	513	39	4	
10	0	0	0	0	510	0	0	550	39	4	
11	0	0	0	0	506	0	0	542	39	4	
12	0	0	0	0	503	0	0	533	40	4	
13	0	0	0	0	497	0	0	552	39	4	
14	0	0	0	0	497	0	0	533	39	4	
15	0	0	0	0	507	0	0	531	39	4	
0	0	0	0	0	508	0	0	547	40	4	
1	0	0	0	0	520	208	0	538	39	4	
2	0	0	0	0	506	755	0	568	39	4	
3	0	0	0	0	515	1022	0	528	40	4	
4	0	0	0	0	502	1022	0	541	40	4	
5	0	0	0	0	518	1023	0	553	39	4	
6	0	0	0	0	499	1022	0	546	39	4	
7	0	0	0	0	509	1022	0	551	39	4	
8	0	0	0	0	509	1022	0	529	40	4	
9	0	0	0	0	510	1022	0	519	39	4	
10	0	0	0	0	512	1022	0	530	39	4	
11	0	0	0	0	514	1022	0	507	39	4	
12	0	0	0	0	492	1022	0	512	40	4	
13	0	0	0	0	513	1010	0	529	39	4	
14	0	0	0	0	502	765	0	507	39	4	
15	0	0	0	0	507	118	0	561	39	4	
0	0	0	0	0	507	0	0	527	40	4	
1	0	0	0	0	487	0	0	535	39	4	
2	0	0	0	0	508	0	0	514	39	4	
3	0	0	0	0	483	0	0	466	39	4	
4	0	0	0	0	515	0	0	462	40	4	
5	0	0	0	0	503	0	0	478	39	4	
6	0	0	0	0	509	0	0	458	39	4	
7	0	0	0	0	511	0	0	457	39	4	
8	0	0	0	0	512	0	0	485	40	4	
9	0	0	0	0	502	0	0	460	39	4	
10	0	0	0	0	508	51	0	492	39	4	
11	0	0	0	0	506	384	0	455	39	4	
12	0	0	0	0	506	1022	0	551	40	4	
13	0	0	0	0	498	1022	0	558	39	4	
14	0	0	0	0	508	1022	0	499	39	4	
15	0	0	0	0	512	1022	0	475	39	4	
0	0	0	0	0	505	1022	0	529	40	4	
1	0	0	0	0	494	1022	0	574	39	4	
2	0	0	0	0	511	1022	0	537	39	4	
3	0	0	0	0	500	1022	0	536	39	4	
4	0	0	0	0	502	1022	0	496	40	4	
5	0	0	0	0	508	1022	0	455	39	4	
6	0	0	0	0	510	1021	0	456	39	4	
7	0	0	0	0	509	915	0	481	39	4	
8	0	0	0	0	501	482	0	506	40	4	
9	0	0	0	0	509	0	0	551	40	4	
10	0	0	0	0	512	0	0	489	39	4	
11	0	0	0	0	504	0	0	441	39	4	
12	0	0	0	0	517	0	0	442	40	4	
13	0	0	0	0	510	0	0	466	39	4	
14	0	0	0	0	508	0	0	442	39	4	
15	0	0	0	0	507	0	0	446	39	4	
0	0	0	0	0	503	0	0	465	40	4	
1	0	0	0	0	505	0	0	449	39	4	
2	0	0	0	0	508	0	0	478	39	4	
3	0	0	0	0	504	89	0	438	39	4	
4	0	0	0	0	502	407	0	450	40	4	
5	0	0	0	0	504	1022	0	471	39	4	
6	0	0	0	0	503	1022	0	457	39	4	
7	0	0	0	0	505	1022	0	492	39	4	
8	0	0	0	0	513	1022	0	472	40	4	
9	0	0	0	0	500	1023	0	452	39	4	
10	0	0	0	0	508	1022	0	492	39	4	
11	0	0	0	0	502	1022	0	472	39	4	
12	0	0	0	0	508	1022	0	475	40	4	
13	0	0	0	0	502	1022	0	494	39	4	
14	0	0	0	0	514	1022	0	500	39	4	
15	0	0	0	0	499	1021	0	532	39	4	
0	0	0	0	0	508	775	0	511	40	4	
1	0	0	0	0	501	129	0	562	39	4	
2	0	0	0	0	504	0	0	588	39	4	
3	0	0	0	0	508	0	0	600	39	4	
4	0	0	0	0	508	0	0	594	40	4	
5	0	0	0	0	497	0	0	574	39	4	
6	0	0	0	0	503	0	0	539	39	4	
7	0	0	0	0	501	0	0	557	39	4	
8	0	0	0	0	508	0	0	541	40	4	
9	0	0	0	0	501	0	0	495	39	4	
10	0	0	0	0	511	0	0	474	39	4	
11	0	0	0	0	500	0	0	472	39	4	
12	0	0	0	0	510	117	0	483	40	4	
13	0	0	0	0	504	573	0	512	40	4	
14	0	0	0	0	505	1022	0	490	39	4	
15	0	0	0	0	502	1022	0	500	39	4	
0	0	0	0	0	507	1022	0	520	40	4	
1	0	0	0	0	500	1022	0	586	39	4	
2	0	0	0	0	507	1022	0	556	39	4	
3	0	0	0	0	498	1022	0	498	39	4	
4	0	0	0	0	505	1022	0	516	40	4	
5	0	0	0	0	501	1022	0	528	39	4	
6	0	0	0	0	514	1022	0	555	39	4	
7	0	0	0	0	503	1022	0	577	39	4	
8	0	0	0	0	504	967	0	566	40	4	
9	0	0	0	0	500	731	0	555	39	4	
10	0	0	0	0	508	0	0	502	39	4	
11	0	0	0	0	501	0	0	492	39	4	
12	0	0	0	0	510	0	0	541	40	4	
13	0	0	0	0	499	0	0	529	40	4	
14	0	0	0	0	497	0	0	536	39	4	
15	0	0	0	0	500	0	0	524	40	4	
0	0	0	0	0	514	0	0	512	40	4	
1	0	0	0	0	499	0	0	458	39	4	
2	0	0	0	0	507	0	0	461	39	4	
3	0	0	0	0	502	0	0	540	39	4	
4	0	0	0	0	509	0	0	512	40	4	
5	0	0	0	0	501	87	0	513	39	4	
6	0	0	0	0	508	388	0	467	39	4	
7	0	0	0	0	498	1022	0	464	40	4	
8	0	0	0	0	508	1022	0	532	40	4	
9	0	0	0	0	501	1022	0	526	40	4	
10	0	0	0	0	502	1022	0	558	39	4	
11	0	0	0	0	502	1023	0	487	40	4	
12	0	0	0	0	507	1022	0	485	40	4	
13	0	0	0	0	498	1022	0	496	39	4	
14	0	0	0	0	508	1022	0	494	39	4	
15	0	0	0	0	500	1022	0	507	39	4	
0	0	0	0	0	505	1022	0	512	40	4	
1	0	0	0	0	499	1022	0	488	40	4	
2	0	0	0	0	507	902	0	492	39	4	
3	0	0	0	0	498	520	0	512	39	4	
4	0	0	0	0	507	0	0	502	40	4	
5	0	0	0	0	501	0	0	532	39	4	
6	0	0	0	0	506	0	0	507	39	4	
7	0	0	0	0	499	0	0	498	39	4	
8	0	0	0	0	509	0	0	518	40	4	
9	0	0	0	0	499	0	0	494	39	4	
10	0	0	0	0	507	0	0	498	39	4	
11	0	0	0	0	499	0	0	516	39	4	
12	0	0	0	0	506	0	0	493	40	4	
13	0	0	0	0	503	0	0	535	39	4	
14	0	0	0	0	504	49	0	530	39	4	
15	0	0	0	0	499	356	0	524	39	4	
0	0	0	0	0	509	1022	0	552	40	4	
1	0	0	0	0	500	1022	0	561	39	4	
2	0	0	0	0	507	1022	0	583	39	4	
3	0	0	0	0	500	1022	0	557	39	4	
4	0	0	0	0	508	1022	0	556	40	4	
5	0	0	0	0	502	1022	0	574	39	4	
6	0	0	0	0	507	1022	0	543	39	4	
7	0	0	0	0	502	1022	0	530	39	4	
8	0	0	0	0	507	1022	0	527	40	4	
9	0	0	0	0	497	1022	0	520	39	4	
10	0	0	0	0	504	1022	0	528	39	4	
11	0	0	0	0	501	989	0	504	39	4	
12	0	0	0	0	504	731	0	503	40	4	
13	0	0	0	0	503	48	0	528	39	4	
14	0	0	0	0	507	0	0	524	39	4	
15	0	0	0	0	500	0	0	523	39	4	
0	0	0	0	0	506	0	0	519	40	4	
1	0	0	0	0	499	0	0	519	39	4	
2	0	0	0	0	508	0	0	538	39	4	
3	0	0	0	0	502	0	0	509	39	4	
4	0	0	0	0	508	0	0	496	40	4	
5	0	0	0	0	499	0	0	513	39	4	
6	0	0	0	0	505	0	0	502	39	4	
7	0	0	0	0	512	0	0	552	39	4	
8	0	0	0	0	501	89	0	561	40	4	
9	0	0	0	0	488	488	0	522	39	4	
10	0	0	0	0	495	1022	0	531	39	4	
11	0	0	0	0	500	1022	0	499	39	4	
12	0	0	0	0	525	1022	0	463	40	4	
13	0	0	0	0	466	1022	0	468	39	4	
14	0	0	0	0	526	1023	0	457	39	4	
15	0	0	0	0	498	1022	0	470	39	4	
0	0	0	0	0	508	1022	0	497	40	4	
1	0	0	0	0	478	1022	0	462	39	4	
2	0	0	0	0	512	1022	0	543	39	4	
3	0	0	0	0	518	1022	0	524	39	4	
4	0	0	0	0	473	1001	0	555	40	4	
5	0	0	0	0	505	828	0	535	39	4	
6	0	0	0	0	460	283	0	481	39	4	
7	0	0	0	0	516	0	0	462	39	4	
8	0	0	0	0	478	0	0	475	40	4	
9	0	0	0	0	549	0	0	480	40	4	
10	0	0	0	0	529	0	0	482	39	4	
11	0	0	0	0	374	0	0	515	39	4	
12	0	0	0	0	564	0	0	498	40	4	
13	0	0	0	0	518	0	0	514	39	4	
14	0	0	0	0	499	0	0	543	39	4	
15	0	0	0	0	441	0	0	516	40	4	
0	0	0	0	0	542	0	0	550	40	4	
1	0	0	0	0	503	82	0	523	39	4	
2	0	0	0	0	542	349	0	527	39	4	
3	0	0	0	0	558	1022	0	549	39	4	
4	0	0	0	0	440	1023	0	521	40	4	
5	0	0	0	0	467	1022	0	517	40	4	
6	0	0	0	0	462	1022	0	528	39	4	
7	0	0	0	0	465	1022	0	503	40	4	
8	0	0	0	0	541	1022	0	527	40	4	
9	0	0	0	0	499	1023	0	481	39	4	
10	0	0	0	0	516	1022	0	528	39	4	
11	0	0	0	0	486	1022	0	479	39	4	
12	0	0	0	0	505	1022	0	465	40	4	
13	0	0	0	0	479	1022	0	500	39	4	
14	0	0	0	0	528	836	0	500	39	4	
15	0	0	0	0	489	306	0	582	39	4	
0	0	0	0	0	520	0	0	546	40	4	
1	0	0	0	0	516	0	0	519	39	4	
2	0	0	0	0	511	0	0	516	39	4	
3	0	0	0	0	502	0	0	529	39	4	
4	0	0	0	0	511	0	0	547	40	4	
5	0	0	0	0	503	0	0	496	40	4	
6	0	0	0	0	511	0	0	464	39	4	
7	0	0	0	0	496	0	0	460	39	4	
8	0	0	0	0	508	0	0	470	40	4	
9	0	0	0	0	499	0	0	451	40	4	
10	0	0	0	0	512	7	0	484	39	4	
11	0	0	0	0	497	254	0	448	39	4	
12	0	0	0	0	507	892	0	458	40	4	
13	0	0	0	0	501	1022	0	488	39	4	
14	0	0	0	0	503	1022	0	564	39	4	
15	0	0	0	0	500	1022	0	572	39	4	
0	0	0	0	0	509	1022	0	503	40	4	
1	0	0	0	0	500	1022	0	482	39	4	
2	0	0	0	0	507	1022	0	509	39	4	
3	0	0	0	0	503	1022	0	552	39	4	
4	0	0	0	0	510	1022	0	553	40	4	
5	0	0	0	0	500	1022	0	487	39	4	
6	0	0	0	0	507	1022	0	486	39	4	
7	0	0	0	0	499	921	0	556	40	4	
8	0	0	0	0	505	511	0	575	40	4	
9	0	0	0	0	499	0	0	542	39	4	
10	0	0	0	0	507	0	0	525	39	4	
11	0	0	0	0	499	0	0	536	39	4	
12	0	0	0	0	508	0	0	572	40	4	
13	0	0	0	0	501	0	0	505	39	4	
14	0	0	0	0	508	0	0	478	39	4	
15	0	0	0	0	500	0	0	512	39	4	
0	0	0	0	0	507	0	0	547	40	4	
1	0	0	0	0	498	0	0	538	39	4	
2	0	0	0	0	507	0	0	463	39	4	
3	0	0	0	0	499	0	0	479	39	4	
4	0	0	0	0	506	120	0	516	40	4	
5	0	0	0	0	501	596	0	528	39	4	
6	0	0	0	0	507	1022	0	543	39	4	
7	0	0	0	0	499	1022	0	515	39	4	
8	0	0	0	0	506	1022	0	537	40	4	
9	0	0	0	0	501	1022	0	471	39	4	
10	0	0	0	0	508	1022	0	467	39	4	
11	0	0	0	0	498	1022	0	535	39	4	
12	0	0	0	0	508	1022	0	543	40	4	
13	0	0	0	0	502	1022	0	558	39	4	
14	0	0	0	0	507	1022	0	556	39	4	
15	0	0	0	0	503	1022	0	485	39	4	
0	0	0	0	0	506	993	0	479	40	4	
1	0	0	0	0	501	799	0	493	39	4	
2	0	0	0	0	510	147	0	483	39	4	
3	0	0	0	0	499	0	0	477	39	4	
4	0	0	0	0	505	0	0	485	40	4	
5	0	0	0	0	503	0	0	479	39	4	
6	0	0	0	0	507	0	0	530	39	4	
7	0	0	0	0	504	0	0	530	39	4	
8	0	0	0	0	506	0	0	514	40	4	
9	0	0	0	0	498	0	0	501	39	4	
10	0	0	0	0	507	0	0	491	39	4	
11	0	0	0	0	500	0	0	496	39	4	
12	0	0	0	0	508	0	0	516	40	4	
13	0	0	0	0	499	78	0	484	39	4	
14	0	0	0	0	508	357	0	493	39	4	
15	0	0	0	0	500	1022	0	499	39	4	
0	0	0	0	0	510	1022	0	492	40	4	
1	0	0	0	0	502	1022	0	538	39	4	
2	0	0	0	0	509	1022	0	507	39	4	
3	0	0	0	0	499	1022	0	523	39	4	
4	0	0	0	0	509	1023	0	551	40	4	
5	0	0	0	0	500	1022	0	548	39	4	
6	0	0	0	0	506	1022	0	575	39	4	
7	0	0	0	0	499	1022	0	551	39	4	
8	0	0	0	0	508	1022	0	545	40	4	
9	0	0	0	0	500	1022	0	560	39	4	
10	0	0	0	0	505	910	0	524	39	4	
11	0	0	0	0	499	574	0	513	39	4	
12	0	0	0	0	510	0	0	506	40	4	
13	0	0	0	0	502	0	0	498	39	4	
14	0	0	0	0	507	0	0	520	39	4	
15	0	0	0	0	499	0	0	496	39	4	
0	0	0	0	0	508	0	0	489	40	4	
1	0	0	0	0	500	0	0	508	39	4	
2	0	0	0	0	509	0	0	497	39	4	
3	0	0	0	0	498	0	0	494	39	4	
4	0	0	0	0	505	0	0	507	40	4	
5	0	0	0	0	499	0	0	567	39	4	
6	0	0	0	0	509	0	0	541	39	4	
7	0	0	0	0	502	158	0	571	39	4	
8	0	0	0	0	507	633	0	551	40	4	
9	0	0	0	0	501	1022	0	524	39	4	
10	0	0	0	0	509	1022	0	515	39	4	
11	0	0	0	0	500	1022	0	474	39	4	
12	0	0	0	0	511	1022	0	472	40	4	
13	0	0	0	0	499	1022	0	484	39	4	
14	0	0	0	0	509	1022	0	465	39	4	
15	0	0	0	0	500	1022	0	517	39	4	
0	0	0	0	0	507	1022	0	561	40	4	
1	0	0	0	0	500	1022	0	499	39	4	
2	0	0	0	0	509	1022	0	502	39	4	
3	0	0	0	0	500	1022	0	488	39	4	
4	0	0	0	0	506	836	0	448	40	4	
5	0	0	0	0	501	335	0	450	39	4	
6	0	0	0	0	507	0	0	483	39	4	
7	0	0	0	0	500	0	0	465	39	4	
8	0	0	0	0	507	0	0	474	40	4	
9	0	0	0	0	499	0	0	483	39	4	
10	0	0	0	0	508	0	0	484	39	4	
11	0	0	0	0	505	0	0	518	39	4	
12	0	0	0	0	508	0	0	504	40	4	
13	0	0	0	0	498	0	0	508	39	4	
14	0	0	0	0	510	0	0	533	39	4	
15	0	0	0	0	499	0	0	514	39	4	
0	0	0	0	0	509	0	0	536	40	4	
1	0	0	0	0	495	172	0	520	39	4	
2	0	0	0	0	508	623	0	520	39	4	
3	0	0	0	0	497	1022	0	546	39	4	
4	0	0	0	0	507	1022	0	509	40	4	
5	0	0	0	0	499	1023	0	506	39	4	
6	0	0	0	0	506	1022	0	519	39	4	
7	0	0	0	0	499	1023	0	503	39	4	
8	0	0	0	0	508	1022	0	521	40	4	
9	0	0	0	0	501	1023	0	505	39	4	
10	0	0	0	0	505	1022	0	512	39	4	
11	0	0	0	0	501	1022	0	518	39	4	
12	0	0	0	0	508	1022	0	504	40	4	
13	0	0	0	0	499	1000	0	529	39	4	
14	0	0	0	0	509	755	0	562	39	4	
15	0	0	0	0	500	94	0	550	39	4	
0	0	0	0	0	502	0	0	540	40	4	
1	0	0	0	0	501	0	0	560	39	4	
2	0	0	0	0	507	0	0	569	39	4	
3	0	0	0	0	500	0	0	516	39	4	
4	0	0	0	0	505	0	0	519	40	4	
5	0	0	0	0	500	0	0	553	39	4	
6	0	0	0	0	508	0	0	522	39	4	
7	0	0	0	0	501	0	0	513	39	4	
8	0	0	0	0	507	0	0	520	40	4	
9	0	0	0	0	501	0	0	492	39	4	
10	0	0	0	0	507	31	0	507	39	4	
11	0	0	0	0	499	301	0	492	39	4	
12	0	0	0	0	505	1011	0	577	40	4	
13	0	0	0	0	498	1022	0	557	39	4	
14	0	0	0	0	509	1022	0	492	39	4	
15	0	0	0	0	497	1022	0	472	39	4	
0	0	0	0	0	507	1022	0	500	40	4	
1	0	0	0	0	500	1022	0	574	39	4	
2	0	0	0	0	508	1023	0	549	39	4	
3	0	0	0	0	500	1022	0	523	39	4	
4	0	0	0	0	504	1022	0	507	40	4	
5	0	0	0	0	501	1023	0	477	39	4	
6	0	0	0	0	506	1022	0	487	39	4	
7	0	0	0	0	498	966	0	537	39	4	
8	0	0	0	0	505	648	0	548	40	4	
9	0	0	0	0	505	0	0	520	39	4	
10	0	0	0	0	505	0	0	534	39	4	
11	0	0	0	0	499	0	0	537	39	4	
12	0	0	0	0	524	0	0	511	40	4	
13	0	0	0	0	516	0	0	478	39	4	
14	0	0	0	0	512	0	0	465	39	4	
15	0	0	0	0	488	0	0	516	39	4	
0	0	0	0	0	507	0	0	534	40	4	
1	0	0	0	0	506	0	0	472	39	4	
2	0	0	0	0	531	0	0	468	39	4	
3	0	0	0	0	497	0	0	500	39	4	
4	0	0	0	0	304	131	0	552	40	4	
5	0	0	0	0	531	610	0	532	39	4	
6	0	0	0	0	547	1022	0	515	39	4	
7	0	0	0	0	633	1022	0	472	39	4	
8	0	0	0	0	317	1022	0	482	40	4	
9	0	0	0	0	447	1022	0	561	39	4	
10	0	0	0	0	602	1023	0	546	39	4	
11	0	0	0	0	646	1022	0	562	40	4	
12	0	0	0	0	399	1022	0	512	40	4	
13	0	0	0	0	660	1022	0	514	39	4	
14	0	0	0	0	568	1022	0	527	39	4	
15	0	0	0	0	460	1022	0	514	39	4	
0	0	0	0	0	563	1021	0	517	40	4	
1	0	0	0	0	512	881	0	512	40	4	
2	0	0	0	0	389	390	0	512	39	4	
3	0	0	0	0	529	0	0	540	39	4	
4	0	0	0	0	416	0	0	513	40	4	
5	0	0	0	0	443	0	0	498	39	4	
6	0	0	0	0	496	0	0	514	39	4	
7	0	0	0	0	472	0	0	485	40	4	
8	0	0	0	0	575	0	0	489	40	4	
9	0	0	0	0	504	0	0	449	39	4	
10	0	0	0	0	496	0	0	428	39	4	
11	0	0	0	0	508	0	0	469	39	4	
12	0	0	0	0	518	0	0	433	40	4	
13	0	0	0	0	498	33	0	436	40	4	
14	0	0	0	0	513	218	0	465	39	4	
15	0	0	0	0	482	827	0	448	39	4	
0	0	0	0	0	511	1022	0	477	40	4	
1	0	0	0	0	501	1022	0	456	39	4	
2	0	0	0	0	511	1023	0	479	39	4	
3	0	0	0	0	499	1022	0	493	40	4	
4	0	0	0	0	505	1022	0	472	40	4	
5	0	0	0	0	502	1022	0	486	39	4	
6	0	0	0	0	505	1022	0	503	39	4	
7	0	0	0	0	499	1022	0	501	39	4	
8	0	0	0	0	506	1022	0	516	40	4	
9	0	0	0	0	498	1022	0	509	40	4	
10	0	0	0	0	508	952	0	519	39	4	
11	0	0	0	0	497	687	0	543	40	4	
12	0	0	0	0	506	0	0	538	40	4	
13	0	0	0	0	497	0	0	559	39	4	
14	0	0	0	0	505	0	0	537	39	4	
15	0	0	0	0	501	0	0	534	39	4	
0	0	0	0	0	508	0	0	554	40	4	
1	0	0	0	0	500	0	0	561	40	4	
2	0	0	0	0	507	0	0	568	39	4	
3	0	0	0	0	499	0	0	552	39	4	
4	0	0	0	0	506	0	0	527	40	4	
5	0	0	0	0	499	0	0	540	39	4	
6	0	0	0	0	510	0	0	527	39	4	
7	0	0	0	0	492	100	0	482	40	4	
8	0	0	0	0	509	417	0	465	40	4	
9	0	0	0	0	500	1022	0	501	40	4	
10	0	0	0	0	507	1023	0	467	39	4	
11	0	0	0	0	502	1022	0	467	39	4	
12	0	0	0	0	508	1022	0	486	40	4	
13	0	0	0	0	501	1022	0	488	39	4	
14	0	0	0	0	506	1022	0	550	39	4	
15	0	0	0	0	502	1022	0	580	39	4	
0	0	0	0	0	506	1022	0	556	40	4	
1	0	0	0	0	501	1023	0	529	39	4	
2	0	0	0	0	508	1022	0	473	39	4	
3	0	0	0	0	501	1022	0	452	39	4	
4	0	0	0	0	506	899	0	531	40	4	
5	0	0	0	0	499	532	0	520	39	4	
6	0	0	0	0	506	0	0	452	39	4	
7	0	0	0	0	499	0	0	449	39	4	
8	0	0	0	0	508	0	0	493	40	4	
9	0	0	0	0	498	0	0	470	39	4	
10	0	0	0	0	506	0	0	477	39	4	
11	0	0	0	0	499	0	0	504	39	4	
12	0	0	0	0	504	0	0	494	40	4	
13	0	0	0	0	502	0	0	496	39	4	
14	0	0	0	0	508	0	0	508	39	4	
15	0	0	0	0	502	0	0	492	39	4	
0	0	0	0	0	501	0	0	510	40	4	
1	0	0	0	0	501	168	0	484	39	4	
2	0	0	0	0	503	618	0	481	39	4	
3	0	0	0	0	500	1022	0	508	39	4	
4	0	0	0	0	508	1022	0	484	40	4	
5	0	0	0	0	496	1022	0	478	39	4	
6	0	0	0	0	508	1022	0	484	39	4	
7	0	0	0	0	500	1022	0	481	39	4	
8	0	0	0	0	507	1022	0	536	40	4	
9	0	0	0	0	500	1022	0	513	39	4	
10	0	0	0	0	506	1022	0	535	39	4	
11	0	0	0	0	498	1022	0	573	39	4	
12	0	0	0	0	505	1022	0	571	40	4	
13	0	0	0	0	499	1012	0	592	39	4	
14	0	0	0	0	506	804	0	614	39	4	
15	0	0	0	0	503	243	0	623	39	4	
0	0	0	0	0	505	0	0	568	40	4	
1	0	0	0	0	503	0	0	529	39	4	
2	0	0	0	0	507	0	0	522	39	4	
3	0	0	0	0	500	0	0	534	39	4	
4	0	0	0	0	510	0	0	576	40	4	
5	0	0	0	0	498	0	0	556	39	4	
6	0	0	0	0	507	0	0	606	39	4	
7	0	0	0	0	500	0	0	588	39	4	
8	0	0	0	0	504	0	0	539	40	4	
9	0	0	0	0	497	0	0	527	39	4	
10	0	0	0	0	508	20	0	523	39	4	
11	0	0	0	0	501	271	0	535	39	4	
12	0	0	0	0	505	917	0	582	40	4	
13	0	0	0	0	497	1022	0	578	39	4	
14	0	0	0	0	508	1022	0	556	39	4	
15	0	0	0	0	500	1022	0	480	39	4	
0	0	0	0	0	507	1022	0	460	40	4	
1	0	0	0	0	498	1022	0	457	39	4	
2	0	0	0	0	506	1022	0	434	39	4	
3	0	0	0	0	501	1022	0	445	39	4	
4	0	0	0	0	507	1022	0	450	40	4	
5	0	0	0	0	502	1022	0	452	39	4	
6	0	0	0	0	506	1022	0	522	39	4	
7	0	0	0	0	500	997	0	487	39	4	
8	0	0	0	0	507	743	0	441	40	4	
9	0	0	0	0	500	91	0	425	39	4	
10	0	0	0	0	504	0	0	456	39	4	
11	0	0	0	0	503	0	0	523	39	4	
12	0	0	0	0	504	0	0	503	40	4	
13	0	0	0	0	497	0	0	473	39	4	
14	0	0	0	0	508	0	0	476	39	4	
15	0	0	0	0	501	0	0	507	39	4	
0	0	0	0	0	509	0	0	472	40	4	
1	0	0	0	0	500	0	0	554	39	4	
2	0	0	0	0	506	0	0	509	39	4	
3	0	0	0	0	497	0	0	545	39	4	
4	0	0	0	0	511	27	0	545	40	4	
5	0	0	0	0	517	292	0	486	39	4	
6	0	0	0	0	487	960	0	474	39	4	
7	0	0	0	0	506	1022	0	526	39	4	
8	0	0	0	0	526	1023	0	510	40	4	
9	0	0	0	0	482	1023	0	534	39	4	
10	0	0	0	0	548	1022	0	504	39	4	
11	0	0	0	0	506	1022	0	527	39	4	
12	0	0	0	0	478	1022	0	508	40	4	
13	0	0	0	0	483	1022	0	491	39	4	
14	0	0	0	0	501	1023	0	485	39	4	
15	0	0	0	0	543	1022	0	502	39	4	
0	0	0	0	0	433	1022	0	496	40	4	
1	0	0	0	0	595	996	0	529	39	4	
2	0	0	0	0	391	755	0	504	39	4	
3	0	0	0	0	504	121	0	502	39	4	
4	0	0	0	0	336	0	0	525	40	4	
5	0	0	0	0	608	0	0	515	39	4	
6	0	0	0	0	254	0	0	520	39	4	
7	0	0	0	0	466	0	0	495	39	4	
8	0	0	0	0	575	0	0	480	40	4	
9	0	0	0	0	194	0	0	500	39	4	
10	0	0	0	0	640	0	0	474	39	4	
11	0	0	0	0	203	0	0	460	39	4	
12	0	0	0	0	610	0	0	479	40	4	
13	0	0	0	0	490	0	0	465	40	4	
14	0	0	0	0	543	41	0	495	39	4	
15	0	0	0	0	434	319	0	482	39	4	
0	0	0	0	0	575	1022	0	474	40	4	
1	0	0	0	0	611	1023	0	501	39	4	
2	0	0	0	0	447	1022	0	476	39	4	
3	0	0	0	0	507	1022	0	501	39	4	
4	0	0	0	0	521	1022	0	508	40	4	
5	0	0	0	0	565	1022	0	508	39	4	
6	0	0	0	0	308	1022	0	536	39	4	
7	0	0	0	0	400	1022	0	527	39	4	
8	0	0	0	0	425	1022	0	520	40	4	
9	0	0	0	0	487	1022	0	536	39	4	
10	0	0	0	0	549	1022	0	525	39	4	
11	0	0	0	0	556	994	0	535	39	4	
12	0	0	0	0	323	743	0	506	40	4	
13	0	0	0	0	479	107	0	506	39	4	
14	0	0	0	0	601	0	0	538	39	4	
15	0	0	0	0	500	0	0	583	39	4	
0	0	0	0	0	595	0	0	578	40	4	
1	0	0	0	0	419	0	0	543	39	4	
2	0	0	0	0	576	0	0	546	39	4	
3	0	0	0	0	343	0	0	523	39	4	
4	0	0	0	0	464	0	0	488	40	4	
5	0	0	0	0	533	0	0	524	39	4	
6	0	0	0	0	611	0	0	504	39	4	
7	0	0	0	0	467	0	0	501	39	4	
8	0	0	0	0	615	38	0	512	40	4	
9	0	0	0	0	547	299	0	504	39	4	
10	0	0	0	0	515	967	0	532	39	4	
11	0	0	0	0	579	1022	0	596	39	4	
12	0	0	0	0	631	1022	0	607	40	4	
13	0	0	0	0	595	1022	0	562	39	4	
14	0	0	0	0	591	1023	0	521	39	4	
15	0	0	0	0	467	1022	0	514	40	4	
0	0	0	0	0	536	1022	0	551	40	4	
1	0	0	0	0	496	1023	0	585	39	4	
2	0	0	0	0	551	1022	0	542	39	4	
3	0	0	0	0	484	1022	0	557	39	4	
4	0	0	0	0	567	1022	0	484	40	4	
5	0	0	0	0	533	983	0	479	39	4	
6	0	0	0	0	412	720	0	504	39	4	
7	0	0	0	0	472	72	0	480	39	4	
8	0	0	0	0	325	0	0	484	40	4	
9	0	0	0	0	577	0	0	591	39	4	
10	0	0	0	0	547	0	0	541	39	4	
11	0	0	0	0	546	0	0	517	39	4	
12	0	0	0	0	446	0	0	537	40	4	
13	0	0	0	0	618	0	0	508	39	4	
14	0	0	0	0	278	0	0	471	39	4	
15	0	0	0	0	577	0	0	491	39	4	
0	0	0	0	0	505	0	0	510	40	4	
1	0	0	0	0	479	0	0	512	39	4	
2	0	0	0	0	552	24	0	559	39	4	
3	0	0	0	0	508	258	0	533	39	4	
4	0	0	0	0	398	828	0	531	40	4	
5	0	0	0	0	526	1022	0	544	39	4	
6	0	0	0	0	507	1022	0	532	39	4	
7	0	0	0	0	365	1022	0	555	39	4	
8	0	0	0	0	490	1022	0	537	40	4	
9	0	0	0	0	565	1022	0	530	39	4	
10	0	0	0	0	457	1023	0	521	39	4	
11	0	0	0	0	477	1022	0	484	39	4	
12	0	0	0	0	479	1022	0	472	40	4	
13	0	0	0	0	497	1022	0	498	39	4	
14	0	0	0	0	596	1022	0	520	39	4	
15	0	0	0	0	644	985	0	596	39	4	
0	0	0	0	0	628	722	0	551	40	4	
1	0	0	0	0	562	90	0	555	39	4	
2	0	0	0	0	537	0	0	547	39	4	
3	0	0	0	0	416	0	0	479	39	4	
4	0	0	0	0	556	0	0	475	40	4	
5	0	0	0	0	460	0	0	493	39	4	
6	0	0	0	0	495	0	0	470	39	4	
7	0	0	0	0	607	0	0	476	39	4	
8	0	0	0	0	657	0	0	521	40	4	
9	0	0	0	0	462	0	0	540	39	4	
10	0	0	0	0	409	0	0	550	39	4	
11	0	0	0	0	489	0	0	530	39	4	
12	0	0	0	0	624	48	0	502	40	4	
13	0	0	0	0	598	323	0	520	39	4	
14	0	0	0	0	521	984	0	498	39	4	
15	0	0	0	0	481	1022	0	473	39	4	
0	0	0	0	0	566	1022	0	492	40	4	
1	0	0	0	0	467	1022	0	469	39	4	
2	0	0	0	0	155	1022	0	465	39	4	
3	0	0	0	0	659	1023	0	535	39	4	
4	0	0	0	0	490	1022	0	488	40	4	
5	0	0	0	0	520	1022	0	437	39	4	
6	0	0	0	0	471	1022	0	470	39	4	
7	0	0	0	0	621	1022	0	486	39	4	
8	0	0	0	0	467	1022	0	489	40	4	
9	0	0	0	0	593	967	0	524	39	4	
10	0	0	0	0	295	696	0	492	39	4	
11	0	0	0	0	437	0	0	584	40	4	
12	0	0	0	0	643	0	0	550	40	4	
13	0	0	0	0	649	0	0	492	39	4	
14	0	0	0	0	528	0	0	562	39	4	
15	0	0	0	0	508	0	0	502	39	4	
0	0	0	0	0	506	0	0	485	40	4	
1	0	0	0	0	455	0	0	495	39	4	
2	0	0	0	0	579	0	0	539	39	4	
3	0	0	0	0	494	0	0	542	39	4	
4	0	0	0	0	325	0	0	520	40	4	
5	0	0	0	0	404	0	0	483	39	4	
6	0	0	0	0	544	65	0	500	39	4	
7	0	0	0	0	477	352	0	515	39	4	
8	0	0	0	0	534	1022	0	579	40	4	
9	0	0	0	0	561	1022	0	560	39	4	
10	0	0	0	0	496	1022	0	504	39	4	
11	0	0	0	0	434	1022	0	496	39	4	
12	0	0	0	0	483	1022	0	556	40	4	
13	0	0	0	0	420	1022	0	577	39	4	
14	0	0	0	0	466	1022	0	584	39	4	
15	0	0	0	0	578	1022	0	510	39	4	
0	0	0	0	0	508	1022	0	493	40	4	
1	0	0	0	0	492	1022	0	515	40	4	
2	0	0	0	0	448	1022	0	498	39	4	
3	0	0	0	0	424	940	0	494	39	4	
4	0	0	0	0	508	600	0	524	40	4	
5	0	0	0	0	457	0	0	528	39	4	
6	0	0	0	0	379	0	0	548	39	4	
7	0	0	0	0	504	0	0	513	40	4	
8	0	0	0	0	460	0	0	506	40	4	
9	0	0	0	0	595	0	0	507	40	4	
10	0	0	0	0	486	0	0	487	39	4	
11	0	0	0	0	553	0	0	494	39	4	
12	0	0	0	0	556	0	0	503	40	4	
13	0	0	0	0	441	0	0	483	39	4	
14	0	0	0	0	535	0	0	505	39	4	
15	0	0	0	0	540	0	0	476	39	4	
0	0	0	0	0	431	87	0	471	40	4	
1	0	0	0	0	472	435	0	487	39	4	
2	0	0	0	0	551	1022	0	462	39	4	
3	0	0	0	0	516	1022	0	497	39	4	
4	0	0	0	0	554	1023	0	485	40	4	
5	0	0	0	0	414	1023	0	500	39	4	
6	0	0	0	0	613	1022	0	522	39	4	
7	0	0	0	0	631	1022	0	501	40	4	
8	0	0	0	0	496	1022	0	495	40	4	
9	0	0	0	0	555	1022	0	499	39	4	
10	0	0	0	0	408	1022	0	484	39	4	
11	0	0	0	0	513	1022	0	504	39	4	
12	0	0	0	0	588	1022	0	491	40	4	
13	0	0	0	0	574	900	0	497	40	4	
14	0	0	0	0	509	486	0	504	39	4	
15	0	0	0	0	495	0	0	491	39	4	
0	0	0	0	0	498	0	0	498	40	4	
1	0	0	0	0	459	0	0	503	39	4	
2	0	0	0	0	461	0	0	496	39	4	
3	0	0	0	0	488	0	0	529	40	4	
4	0	0	0	0	534	0	0	498	40	4	
5	0	0	0	0	436	0	0	519	39	4	
6	0	0	0	0	513	0	0	539	39	4	
7	0	0	0	0	561	0	0	545	40	4	
8	0	0	0	0	650	0	0	576	40	4	
9	0	0	0	0	608	0	0	521	40	4	
10	0	0	0	0	554	108	0	545	39	4	
11	0	0	0	0	524	503	0	578	39	4	
12	0	0	0	0	370	1022	0	530	40	4	
13	0	0	0	0	527	1022	0	486	39	4	
14	0	0	0	0	541	1022	0	482	39	4	
15	0	0	0	0	522	1022	0	502	40	4	
0	0	0	0	0	460	1022	0	482	40	4	
1	0	0	0	0	531	1022	0	478	39	4	
2	0	0	0	0	482	1022	0	562	39	4	
3	0	0	0	0	568	1023	0	572	39	4	
4	0	0	0	0	467	1022	0	524	40	4	
5	0	0	0	0	547	1022	0	532	40	4	
6	0	0	0	0	567	1009	0	479	39	4	
7	0	0	0	0	361	869	0	482	39	4	
8	0	0	0	0	459	382	0	506	40	4	
9	0	0	0	0	568	0	0	484	39	4	
10	0	0	0	0	513	0	0	500	39	4	
11	0	0	0	0	511	0	0	483	39	4	
12	0	0	0	0	506	0	0	484	40	4	
13	0	0	0	0	487	0	0	511	39	4	
14	0	0	0	0	535	0	0	489	39	4	
15	0	0	0	0	583	0	0	493	39	4	
0	0	0	0	0	596	0	0	500	40	4	
1	0	0	0	0	527	0	0	504	39	4	
2	0	0	0	0	544	0	0	534	39	4	
3	0	0	0	0	496	8	0	525	40	4	
4	0	0	0	0	578	134	0	500	40	4	
5	0	0	0	0	532	584	0	522	39	4	
6	0	0	0	0	465	1022	0	487	39	4	
7	0	0	0	0	568	1022	0	488	39	4	
8	0	0	0	0	377	1022	0	512	40	4	
9	0	0	0	0	466	1022	0	492	39	4	
10	0	0	0	0	543	1022	0	535	39	4	
11	0	0	0	0	478	1022	0	498	39	4	
12	0	0	0	0	513	1022	0	498	40	4	
13	0	0	0	0	487	1023	0	523	39	4	
14	0	0	0	0	478	1022	0	512	39	4	
15	0	0	0	0	545	1022	0	568	39	4	
0	0	0	0	0	655	967	0	548	40	4	
1	0	0	0	0	464	771	0	559	39	4	
2	0	0	0	0	524	127	0	551	39	4	
3	0	0	0	0	485	0	0	522	39	4	
4	0	0	0	0	591	0	0	542	40	4	
5	0	0	0	0	531	0	0	477	40	4	
6	0	0	0	0	543	0	0	468	39	4	
7	0	0	0	0	514	0	0	502	39	4	
8	0	0	0	0	403	0	0	521	40	4	
9	0	0	0	0	553	0	0	560	39	4	
10	0	0	0	0	591	0	0	569	39	4	
11	0	0	0	0	511	0	0	528	39	4	
12	0	0	0	0	558	0	0	531	40	4	
13	0	0	0	0	594	78	0	466	39	4	
14	0	0	0	0	568	308	0	468	39	4	
15	0	0	0	0	559	1022	0	483	39	4	
0	0	0	0	0	528	1022	0	476	40	4	
1	0	0	0	0	620	1023	0	566	39	4	
2	0	0	0	0	497	1022	0	520	39	4	
3	0	0	0	0	503	1022	0	459	39	4	
4	0	0	0	0	503	1022	0	464	40	4	
5	0	0	0	0	457	1022	0	498	40	4	
6	0	0	0	0	545	1022	0	492	39	4	
7	0	0	0	0	504	1022	0	514	39	4	
8	0	0	0	0	422	1022	0	495	40	4	
9	0	0	0	0	527	1022	0	518	39	4	
10	0	0	0	0	469	922	0	488	39	4	
11	0	0	0	0	569	647	0	523	39	4	
12	0	0	0	0	551	0	0	532	40	4	
13	0	0	0	0	198	0	0	480	39	4	
14	0	0	0	0	412	0	0	471	39	4	
15	0	0	0	0	556	0	0	500	39	4	
0	0	0	0	0	404	0	0	556	40	4	
1	0	0	0	0	471	0	0	498	39	4	
2	0	0	0	0	558	0	0	479	39	4	
3	0	0	0	0	536	0	0	515	39	4	
4	0	0	0	0	468	0	0	563	40	4	
5	0	0	0	0	530	0	0	551	40	4	
6	0	0	0	0	476	0	0	577	39	4	
7	0	0	0	0	530	119	0	570	39	4	
8	0	0	0	0	491	429	0	512	40	4	
9	0	0	0	0	344	1022	0	495	39	4	
10	0	0	0	0	521	1022	0	547	39	4	
11	0	0	0	0	495	1022	0	552	39	4	
12	0	0	0	0	505	1023	0	548	40	4	
13	0	0	0	0	531	1022	0	501	39	4	
14	0	0	0	0	555	1022	0	467	39	4	
15	0	0	0	0	504	1022	0	475	39	4	
0	0	0	0	0	522	1022	0	480	40	4	
1	0	0	0	0	367	1022	0	477	39	4	
2	0	0	0	0	493	1022	0	518	39	4	
3	0	0	0	0	487	1022	0	497	39	4	
4	0	0	0	0	437	869	0	502	40	4	
5	0	0	0	0	508	482	0	526	39	4	
6	0	0	0	0	486	0	0	513	39	4	
7	0	0	0	0	507	0	0	542	40	4	
8	0	0	0	0	611	0	0	523	40	4	
9	0	0	0	0	537	0	0	519	39	4	
10	0	0	0	0	456	0	0	533	39	4	
11	0	0	0	0	548	0	0	515	39	4	
12	0	0	0	0	493	0	0	502	40	4	
13	0	0	0	0	511	0	0	526	40	4	
14	0	0	0	0	512	0	0	502	39	4	
15	0	0	0	0	511	0	0	524	40	4	
0	0	0	0	0	382	0	0	500	40	4	
1	0	0	0	0	449	143	0	498	40	4	
2	0	0	0	0	527	499	0	504	39	4	
3	0	0	0	0	391	1022	0	519	40	4	
4	0	0	0	0	632	1023	0	517	40	4	
5	0	0	0	0	433	1023	0	513	39	4	
6	0	0	0	0	539	1022	0	509	39	4	
7	0	0	0	0	523	1023	0	527	39	4	
8	0	0	0	0	504	1022	0	500	40	4	
9	0	0	0	0	527	1023	0	500	39	4	
10	0	0	0	0	435	1022	0	508	39	4	
11	0	0	0	0	442	1022	0	496	40	4	
12	0	0	0	0	526	1022	0	513	40	4	
13	0	0	0	0	472	1022	0	510	40	4	
14	0	0	0	0	536	871	0	519	39	4	
15	0	0	0	0	460	491	0	540	39	4	
0	0	0	0	0	569	0	0	535	40	4	
1	0	0	0	0	452	0	0	586	39	4	
2	0	0	0	0	496	0	0	572	39	4	
3	0	0	0	0	469	0	0	567	40	4	
4	0	0	0	0	565	0	0	561	39	4	
5	0	0	0	0	409	0	0	550	40	4	
6	0	0	0	0	551	0	0	542	39	4	
7	0	0	0	0	559	0	0	557	39	4	
8	0	0	0	0	481	0	0	541	40	4	
9	0	0	0	0	508	0	0	480	40	4	
10	0	0	0	0	566	0	0	475	39	4	
11	0	0	0	0	438	183	0	503	40	4	
12	0	0	0	0	579	618	0	553	40	4	
13	0	0	0	0	509	1022	0	559	39	4	
14	0	0	0	0	531	1023	0	565	40	4	
15	0	0	0	0	529	1022	0	518	39	4	
0	0	0	0	0	529	1022	0	488	39	4	
1	0	0	0	0	497	1022	0	483	40	4	
2	0	0	0	0	473	1022	0	489	39	4	
3	0	0	0	0	495	1022	0	494	39	4	
4	0	0	0	0	484	1022	0	555	40	4	
5	0	0	0	0	521	1022	0	567	40	4	
6	0	0	0	0	495	1022	0	518	39	4	
7	0	0	0	0	486	1022	0	484	40	4	
8	0	0	0	0	504	861	0	453	40	4	
9	0	0	0	0	492	460	0	438	39	4	
10	0	0	0	0	508	0	0	452	39	4	
11	0	0	0	0	496	0	0	453	39	4	
12	0	0	0	0	499	0	0	541	40	4	
13	0	0	0	0	499	0	0	486	40	4	
14	0	0	0	0	508	0	0	457	39	4	
15	0	0	0	0	495	0	0	465	40	4	
0	0	0	0	0	505	0	0	483	39	4	
1	0	0	0	0	498	0	0	480	40	4	
2	0	0	0	0	508	0	0	511	39	4	
3	0	0	0	0	507	0	0	487	39	4	
4	0	0	0	0	499	0	0	503	40	4	
5	0	0	0	0	495	163	0	528	40	4	
6	0	0	0	0	511	578	0	503	39	4	
7	0	0	0	0	490	1022	0	531	40	4	
8	0	0	0	0	503	1022	0	516	40	4	
9	0	0	0	0	503	1022	0	503	39	4	
10	0	0	0	0	510	1022	0	539	39	4	
11	0	0	0	0	497	1022	0	510	39	4	
12	0	0	0	0	502	1022	0	500	40	4	
13	0	0	0	0	495	1022	0	547	40	4	
14	0	0	0	0	498	1022	0	572	39	4	
15	0	0	0	0	499	1022	0	577	39	4	
0	0	0	0	0	507	1022	0	556	40	4	
1	0	0	0	0	497	1022	0	544	39	4	
2	0	0	0	0	502	859	0	514	39	4	
3	0	0	0	0	496	464	0	476	39	4	
4	0	0	0	0	507	0	0	473	40	4	
5	0	0	0	0	491	0	0	488	40	4	
6	0	0	0	0	513	0	0	485	39	4	
7	0	0	0	0	495	0	0	524	39	4	
8	0	0	0	0	505	0	0	509	40	4	
9	0	0	0	0	497	0	0	496	40	4	
10	0	0	0	0	509	0	0	509	39	4	
11	0	0	0	0	489	0	0	571	40	4	
12	0	0	0	0	505	0	0	548	40	4	
13	0	0	0	0	488	0	0	530	39	4	
14	0	0	0	0	507	0	0	493	39	4	
15	0	0	0	0	498	189	0	483	40	4	
0	0	0	0	0	507	640	0	518	40	4	
1	0	0	0	0	496	1022	0	549	40	4	
2	0	0	0	0	507	1022	0	532	39	4	
3	0	0	0	0	498	1023	0	543	39	4	
4	0	0	0	0	505	1022	0	516	40	4	
5	0	0	0	0	496	1022	0	492	40	4	
6	0	0	0	0	505	1022	0	483	39	4	
7	0	0	0	0	494	1022	0	521	39	4	
8	0	0	0	0	500	1022	0	506	40	4	
9	0	0	0	0	497	1022	0	489	40	4	
10	0	0	0	0	504	1022	0	495	39	4	
11	0	0	0	0	501	1021	0	450	40	4	
12	0	0	0	0	506	829	0	466	40	4	
13	0	0	0	0	499	361	0	508	39	4	
14	0	0	0	0	503	0	0	514	40	4	
15	0	0	0	0	500	0	0	505	39	4	
0	0	0	0	0	503	0	0	519	40	4	
1	0	0	0	0	498	0	0	472	40	4	
2	0	0	0	0	504	0	0	456	39	4	
3	0	0	0	0	500	0	0	480	39	4	
4	0	0	0	0	503	0	0	552	40	4	
5	0	0	0	0	499	0	0	543	39	4	
6	0	0	0	0	502	0	0	525	39	4	
7	0	0	0	0	499	0	0	485	40	4	
8	0	0	0	0	504	0	0	499	39	4	
9	0	0	0	0	498	159	0	508	40	4	
10	0	0	0	0	505	579	0	486	39	4	
11	0	0	0	0	499	1022	0	497	39	4	
12	0	0	0	0	504	1022	0	466	40	4	
13	0	0	0	0	499	1022	0	460	39	4	
14	0	0	0	0	506	1022	0	462	39	4	
15	0	0	0	0	499	1022	0	443	40	4	
0	0	0	0	0	505	1022	0	465	40	4	
1	0	0	0	0	500	1022	0	446	40	4	
2	0	0	0	0	502	1023	0	440	39	4	
3	0	0	0	0	499	1022	0	475	39	4	
4	0	0	0	0	506	1022	0	454	40	4	
5	0	0	0	0	499	1022	0	454	39	4	
6	0	0	0	0	505	839	0	472	39	4	
7	0	0	0	0	498	360	0	469	40	4	
8	0	0	0	0	505	0	0	508	40	4	
9	0	0	0	0	500	0	0	492	39	4	
10	0	0	0	0	502	0	0	487	39	4	
11	0	0	0	0	499	0	0	531	39	4	
12	0	0	0	0	503	0	0	509	40	4	
13	0	0	0	0	500	0	0	531	39	4	
14	0	0	0	0	506	0	0	533	39	4	
15	0	0	0	0	501	0	0	520	39	4	
0	0	0	0	0	505	0	0	531	40	4	
1	0	0	0	0	502	0	0	504	39	4	
2	0	0	0	0	503	11	0	497	39	4	
3	0	0	0	0	499	213	0	507	39	4	
4	0	0	0	0	504	716	0	490	40	4	
5	0	0	0	0	502	1022	0	509	39	4	
6	0	0	0	0	504	1022	0	490	39	4	
7	0	0	0	0	500	1022	0	487	39	4	
8	0	0	0	0	502	1022	0	502	40	4	
9	0	0	0	0	497	1022	0	494	39	4	
10	0	0	0	0	505	1022	0	501	39	4	
11	0	0	0	0	501	1022	0	509	39	4	
12	0	0	0	0	507	1022	0	502	40	4	
13	0	0	0	0	500	1022	0	519	39	4	
14	0	0	0	0	504	1022	0	509	39	4	
15	0	0	0	0	502	1015	0	512	39	4	
0	0	0	0	0	504	800	0	555	40	4	
1	0	0	0	0	502	261	0	543	39	4	
2	0	0	0	0	505	0	0	558	39	4	
3	0	0	0	0	499	0	0	578	39	4	
4	0	0	0	0	503	0	0	536	40	4	
5	0	0	0	0	500	0	0	526	39	4	
6	0	0	0	0	504	0	0	552	39	4	
7	0	0	0	0	501	0	0	548	39	4	
8	0	0	0	0	503	0	0	521	40	4	
9	0	0	0	0	499	0	0	523	39	4	
10	0	0	0	0	506	0	0	465	39	4	
11	0	0	0	0	499	0	0	460	39	4	
12	0	0	0	0	507	14	0	480	40	4	
13	0	0	0	0	498	219	0	504	39	4	
14	0	0	0	0	506	730	0	543	39	5	
15	0	0	0	0	500	1022	0	473	39	4	
0	0	0	0	0	504	1022	0	476	40	4	
1	0	0	0	0	501	1022	0	501	39	4	
2	0	0	0	0	505	1022	0	486	39	4	
3	0	0	0	0	498	1022	0	548	39	5	
4	0	0	0	0	504	1022	0	559	40	5	
5	0	0	0	0	497	1022	0	525	39	5	
6	0	0	0	0	504	1022	0	507	39	5	
7	0	0	0	0	500	1022	0	482	39	4	
8	0	0	0	0	504	1022	0	512	40	5	
9	0	0	0	0	499	1014	0	486	39	5	
10	0	0	0	0	504	818	0	492	39	5	
11	0	0	0	0	499	327	0	567	39	5	
12	0	0	0	0	505	0	0	570	40	5	
13	0	0	0	0	502	0	0	513	39	5	
14	0	0	0	0	503	0	0	492	39	5	
15	0	0	0	0	500	0	0	518	39	5	
0	0	0	0	0	505	0	0	492	40	5	
1	0	0	0	0	500	0	0	494	39	5	
2	0	0	0	0	501	0	0	506	39	5	
3	0	0	0	0	500	0	0	494	39	5	
4	0	0	0	0	506	0	0	520	40	5	
5	0	0	0	0	503	0	0	490	39	5	
6	0	0	0	0	501	6	0	486	39	5	
7	0	0	0	0	502	190	0	518	40	5	
8	0	0	0	0	499	649	0	491	40	5	
9	0	0	0	0	499	1022	0	482	39	5	
10	0	0	0	0	500	1023	0	538	39	5	
11	0	0	0	0	499	1022	0	603	39	5	
12	0	0	0	0	499	1022	0	593	40	5	
13	0	0	0	0	501	1022	0	589	40	5	
14	0	0	0	0	497	1022	0	557	39	5	
15	0	0	0	0	502	1022	0	510	39	5	
0	0	0	0	0	494	1022	0	504	40	5	
1	0	0	0	0	505	1022	0	571	39	5	
2	0	0	0	0	494	1022	0	499	39	5	
3	0	0	0	0	509	1022	0	485	39	5	
4	0	0	0	0	491	903	0	504	40	5	
5	0	0	0	0	508	523	0	489	40	5	
6	0	0	0	0	490	0	0	501	39	5	
7	0	0	0	0	508	0	0	510	39	5	
8	0	0	0	0	492	0	0	506	40	5	
9	0	0	0	0	508	0	0	571	39	5	
10	0	0	0	0	492	0	0	559	39	5	
11	0	0	0	0	509	0	0	545	39	5	
12	0	0	0	0	490	0	0	492	40	5	
13	0	0	0	0	505	0	0	500	39	5	
14	0	0	0	0	490	0	0	531	39	5	
15	0	0	0	0	506	0	0	560	39	5	
0	0	0	0	0	493	0	0	573	40	5	
1	0	0	0	0	507	0	0	556	39	4	
2	0	0	0	0	491	88	0	555	39	4	
3	0	0	0	0	507	289	0	541	39	4	
4	0	0	0	0	491	714	0	503	40	4	
5	0	0	0	0	505	1022	0	498	39	4	
6	0	0	0	0	489	1022	0	567	39	4	
7	0	0	0	0	507	1022	0	502	39	4	
8	0	0	0	0	489	1022	0	562	40	4	
9	0	0	0	0	508	1023	0	548	39	4	
10	0	0	0	0	491	1022	0	539	39	4	
11	0	0	0	0	505	1022	0	534	39	4	
12	0	0	0	0	489	1022	0	466	40	4	
13	0	0	0	0	503	1022	0	473	39	5	
14	0	0	0	0	489	926	0	512	39	5	
15	0	0	0	0	509	493	0	516	40	5	
0	0	0	0	0	489	0	0	519	40	5	
1	0	0	0	0	508	0	0	501	39	5	
2	0	0	0	0	490	0	0	505	39	5	
3	0	0	0	0	505	0	0	545	39	5	
4	0	0	0	0	488	0	0	515	40	5	
5	0	0	0	0	505	0	0	481	39	5	
6	0	0	0	0	487	0	0	487	39	5	
7	0	0	0	0	507	0	0	515	39	5	
8	0	0	0	0	491	0	0	572	40	5	
9	0	0	0	0	505	0	0	557	39	5	
10	0	0	0	0	486	0	0	493	39	5	
11	0	0	0	0	504	0	0	497	39	5	
12	0	0	0	0	488	0	0	517	40	5	
13	0	0	0	0	504	0	0	499	39	5	
14	0	0	0	0	488	0	0	526	39	5	
15	0	0	0	0	505	0	0	512	39	5	
0	0	0	0	0	491	0	0	513	40	5	
1	0	0	0	0	508	0	0	542	39	5	
2	0	0	0	0	489	0	0	518	39	5	
3	0	0	0	0	505	0	0	519	40	5	
4	0	0	0	0	491	0	0	524	40	5	
5	0	0	0	0	505	0	0	498	39	5	
6	0	0	0	0	487	30	0	520	39	5	
7	0	0	0	0	507	400	0	496	40	4	
8	0	0	0	0	488	1022	0	488	40	4	
9	0	0	0	0	505	1023	0	510	39	4	
10	0	0	0	0	487	1022	0	489	39	4	
11	0	0	0	0	507	1022	0	495	39	4	
12	0	0	0	0	487	1022	0	515	40	4	
13	0	0	0	0	506	1022	0	496	39	4	
14	0	0	0	0	490	1022	0	535	39	4	
15	0	0	0	0	507	1022	0	508	39	4	
0	0	0	0	0	486	1022	0	518	40	4	
1	0	0	0	0	508	1022	0	543	39	4	
2	0	0	0	0	491	1022	0	519	39	4	
3	0	0	0	0	507	1022	0	535	39	4	
4	0	0	0	0	487	837	0	516	40	4	
5	0	0	0	0	509	0	0	508	39	4	
6	0	0	0	0	490	0	0	524	39	4	
7	0	0	0	0	508	0	0	497	39	4	
8	0	0	0	0	486	0	0	499	40	4	
9	0	0	0	0	509	0	0	492	39	4	
10	0	0	0	0	490	0	0	486	39	4	
11	0	0	0	0	508	0	0	515	39	4	
12	0	0	0	0	489	0	0	500	40	4	
13	0	0	0	0	507	0	0	499	39	4	
14	0	0	0	0	486	0	0	560	39	4	
15	0	0	0	0	508	110	0	540	39	4	
0	0	0	0	0	487	783	0	551	40	4	
1	0	0	0	0	510	1022	0	542	39	4	
2	0	0	0	0	489	1022	0	512	39	4	
3	0	0	0	0	508	1022	0	515	39	4	
4	0	0	0	0	489	1022	0	535	40	4	
5	0	0	0	0	510	1022	0	535	39	4	
6	0	0	0	0	487	1022	0	492	39	4	
7	0	0	0	0	508	1022	0	511	39	4	
8	0	0	0	0	486	1022	0	478	40	4	
9	0	0	0	0	509	1022	0	455	39	4	
10	0	0	0	0	490	1022	0	484	39	4	
11	0	0	0	0	508	1022	0	465	39	4	
12	0	0	0	0	489	1022	0	480	40	4	
13	0	0	0	0	508	825	0	493	39	4	
14	0	0	0	0	489	0	0	510	39	4	
15	0	0	0	0	508	0	0	528	39	4	
0	0	0	0	0	487	0	0	503	40	4	
1	0	0	0	0	506	0	0	483	39	4	
2	0	0	0	0	490	0	0	540	39	4	
3	0	0	0	0	512	0	0	508	39	4	
4	0	0	0	0	489	0	0	511	40	4	
5	0	0	0	0	511	0	0	501	39	4	
6	0	0	0	0	487	0	0	454	39	4	
7	0	0	0	0	511	0	0	454	40	4	
8	0	0	0	0	487	71	0	468	40	4	
9	0	0	0	0	508	598	0	459	40	4	
10	0	0	0	0	490	1022	0	486	39	4	
11	0	0	0	0	503	1022	0	529	39	4	
12	0	0	0	0	491	1022	0	527	40	4	
13	0	0	0	0	504	1022	0	547	40	4	
14	0	0	0	0	493	1022	0	516	39	4	
15	0	0	0	0	505	1022	0	471	39	4	
0	0	0	0	0	493	1022	0	480	40	4	
1	0	0	0	0	504	1022	0	492	39	4	
2	0	0	0	0	494	1022	0	484	39	4	
3	0	0	0	0	502	1022	0	505	40	4	
4	0	0	0	0	492	1022	0	493	40	4	
5	0	0	0	0	503	1022	0	483	39	4	
6	0	0	0	0	493	1022	0	505	39	4	
7	0	0	0	0	505	1022	0	480	39	4	
8	0	0	0	0	491	1022	0	493	40	4	
9	0	0	0	0	504	1022	0	499	39	4	
10	0	0	0	0	493	1022	0	488	39	4	
11	0	0	0	0	501	1022	0	514	40	4	
12	0	0	0	0	492	1008	0	496	40	4	
13	0	0	0	0	504	935	0	494	39	4	
14	0	0	0	0	493	562	0	523	39	4	
15	0	0	0	0	506	0	0	504	39	4	
0	0	0	0	0	494	0	0	506	40	4	
1	0	0	0	0	501	0	0	571	39	4	
2	0	0	0	0	494	0	0	594	39	4	
3	0	0	0	0	504	0	0	573	39	4	
4	0	0	0	0	494	0	0	535	40	4	
5	0	0	0	0	503	0	0	540	39	4	
6	0	0	0	0	493	0	0	524	39	4	
7	0	0	0	0	505	0	0	460	39	4	
8	0	0	0	0	493	245	0	453	40	4	
9	0	0	0	0	503	1022	0	477	39	4	
10	0	0	0	0	494	1022	0	467	39	4	
11	0	0	0	0	503	1022	0	504	39	4	
12	0	0	0	0	491	1022	0	534	40	4	
13	0	0	0	0	504	1022	0	502	39	4	
14	0	0	0	0	495	1022	0	519	39	4	
15	0	0	0	0	504	1022	0	472	39	4	
0	0	0	0	0	488	1022	0	466	40	4	
1	0	0	0	0	507	1022	0	491	39	4	
2	0	0	0	0	487	1022	0	473	39	4	
3	0	0	0	0	502	1022	0	473	39	4	
4	0	0	0	0	470	925	0	500	40	4	
5	0	0	0	0	508	197	0	523	39	4	
6	0	0	0	0	486	0	0	574	39	4	
7	0	0	0	0	510	0	0	580	39	4	
8	0	0	0	0	439	0	0	513	40	4	
9	0	0	0	0	551	0	0	500	40	4	
10	0	0	0	0	488	0	0	527	39	4	
11	0	0	0	0	496	0	0	504	39	4	
12	0	0	0	0	502	0	0	567	40	4	
13	0	0	0	0	441	0	0	551	40	4	
14	0	0	0	0	533	0	0	528	39	4	
15	0	0	0	0	502	0	0	474	40	4	
0	0	0	0	0	496	0	0	466	40	4	
1	0	0	0	0	523	151	0	510	39	4	
2	0	0	0	0	487	901	0	513	39	4	
3	0	0	0	0	503	1022	0	531	39	4	
4	0	0	0	0	529	1022	0	467	40	4	
5	0	0	0	0	411	1022	0	455	40	4	
6	0	0	0	0	503	1022	0	504	39	4	
7	0	0	0	0	547	1022	0	514	40	4	
8	0	0	0	0	324	1022	0	500	40	4	
9	0	0	0	0	717	1022	0	456	39	4	
10	0	0	0	0	274	1022	0	459	39	4	
11	0	0	0	0	481	1022	0	501	39	4	
12	0	0	0	0	497	1022	0	543	40	4	
13	0	0	0	0	528	1022	0	546	40	4	
14	0	0	0	0	638	850	0	531	39	5	
15	0	0	0	0	566	0	0	505	39	5	
0	0	0	0	0	527	0	0	511	40	5	
1	0	0	0	0	478	0	0	514	39	5	
2	0	0	0	0	556	0	0	519	39	5	
3	0	0	0	0	561	0	0	566	40	5	
4	0	0	0	0	556	0	0	539	40	5	
5	0	0	0	0	430	0	0	532	39	5	
6	0	0	0	0	551	0	0	536	39	5	
7	0	0	0	0	453	0	0	523	39	5	
8	0	0	0	0	499	0	0	539	40	5	
9	0	0	0	0	510	0	0	526	39	5	
10	0	0	0	0	500	0	0	522	39	5	
11	0	0	0	0	483	108	0	538	39	5	
12	0	0	0	0	418	642	0	516	40	5	
13	0	0	0	0	526	1022	0	501	39	5	
14	0	0	0	0	538	1022	0	522	39	5	
15	0	0	0	0	488	1022	0	492	40	5	
0	0	0	0	0	455	1022	0	521	40	5	
1	0	0	0	0	541	1022	0	490	39	5	
2	0	0	0	0	485	1022	0	491	39	5	
3	0	0	0	0	469	1022	0	519	39	5	
4	0	0	0	0	545	1022	0	495	40	6	
5	0	0	0	0	495	1022	0	520	40	6	
6	0	0	0	0	488	1022	0	523	39	6	
7	0	0	0	0	524	1022	0	511	40	6	
8	0	0	0	0	459	704	0	523	40	6	
9	0	0	0	0	540	0	0	500	39	6	
10	0	0	0	0	553	0	0	504	39	6	
11	0	0	0	0	389	0	0	523	39	6	
12	0	0	0	0	548	0	0	510	40	6	
13	0	0	0	0	419	0	0	521	39	6	
14	0	0	0	0	535	0	0	500	39	6	
15	0	0	0	0	537	0	0	493	39	6	
0	0	0	0	0	512	0	0	516	40	6	
1	0	0	0	0	510	0	0	507	40	6	
2	0	0	0	0	545	0	0	558	39	6	
3	0	0	0	0	471	0	0	522	39	6	
4	0	0	0	0	522	116	0	500	40	6	
5	0	0	0	0	521	770	0	534	39	6	
6	0	0	0	0	468	1022	0	519	39	6	
7	0	0	0	0	515	1022	0	558	39	6	
8	0	0	0	0	554	1022	0	568	40	6	
9	0	0	0	0	554	1022	0	565	39	6	
10	0	0	0	0	511	1022	0	548	39	6	
11	0	0	0	0	487	1022	0	536	39	6	
12	0	0	0	0	545	1023	0	548	40	6	
13	0	0	0	0	433	1022	0	528	39	6	
14	0	0	0	0	520	1022	0	459	39	6	
15	0	0	0	0	487	1022	0	454	39	6	
0	0	0	0	0	457	1021	0	472	40	6	
1	0	0	0	0	550	730	0	456	39	6	
2	0	0	0	0	499	0	0	484	39	6	
3	0	0	0	0	544	0	0	477	40	6	
4	0	0	0	0	410	0	0	470	40	6	
5	0	0	0	0	539	0	0	515	39	6	
6	0	0	0	0	510	0	0	579	39	6	
7	0	0	0	0	463	0	0	566	39	6	
8	0	0	0	0	511	0	0	497	40	6	
9	0	0	0	0	511	0	0	468	39	6	
10	0	0	0	0	463	0	0	503	39	6	
11	0	0	0	0	524	0	0	548	39	6	
12	0	0	0	0	487	0	0	533	40	6	
13	0	0	0	0	505	158	0	529	39	6	
14	0	0	0	0	518	913	0	495	39	6	
15	0	0	0	0	512	1022	0	497	39	6	
0	0	0	0	0	515	1022	0	526	40	6	
1	0	0	0	0	502	1022	0	489	39	6	
2	0	0	0	0	510	1022	0	479	39	6	
3	0	0	0	0	506	1022	0	505	39	6	
4	0	0	0	0	486	1022	0	492	40	6	
5	0	0	0	0	541	1022	0	525	39	6	
6	0	0	0	0	517	1022	0	497	39	6	
7	0	0	0	0	513	1022	0	493	39	6	
8	0	0	0	0	471	1022	0	511	40	6	
9	0	0	0	0	536	1022	0	478	39	6	
10	0	0	0	0	475	934	0	480	39	6	
11	0	0	0	0	512	365	0	549	39	6	
12	0	0	0	0	570	0	0	574	40	6	
13	0	0	0	0	478	0	0	541	39	6	
14	0	0	0	0	526	0	0	497	39	6	
15	0	0	0	0	516	0	0	510	39	5	
0	0	0	0	0	543	0	0	494	40	5	
1	0	0	0	0	496	0	0	480	39	5	
2	0	0	0	0	502	0	0	504	39	5	
3	0	0	0	0	557	0	0	497	39	5	
4	0	0	0	0	497	0	0	497	40	5	
5	0	0	0	0	519	0	0	503	39	5	
6	0	0	0	0	518	0	0	568	39	5	
7	0	0	0	0	503	187	0	551	39	5	
8	0	0	0	0	496	1022	0	553	40	5	
9	0	0	0	0	521	1022	0	502	39	5	
10	0	0	0	0	528	1022	0	479	39	5	
11	0	0	0	0	499	1022	0	531	39	5	
12	0	0	0	0	550	1022	0	564	40	5	
13	0	0	0	0	374	1022	0	488	39	5	
14	0	0	0	0	543	1022	0	479	39	5	
15	0	0	0	0	523	1022	0	516	39	5	
0	0	0	0	0	511	1022	0	543	40	5	
1	0	0	0	0	503	1023	0	532	39	5	
2	0	0	0	0	508	1022	0	468	39	5	
3	0	0	0	0	507	1022	0	469	40	5	
4	0	0	0	0	481	825	0	558	40	5	
5	0	0	0	0	517	0	0	532	39	5	
6	0	0	0	0	519	0	0	536	39	5	
7	0	0	0	0	481	0	0	509	40	5	
8	0	0	0	0	506	0	0	483	40	5	
9	0	0	0	0	510	0	0	493	39	5	
10	0	0	0	0	505	0	0	574	39	5	
11	0	0	0	0	493	0	0	561	39	5	
12	0	0	0	0	486	0	0	511	40	5	
13	0	0	0	0	523	0	0	510	40	5	
14	0	0	0	0	505	0	0	535	39	5	
15	0	0	0	0	504	0	0	595	39	5	
0	0	0	0	0	504	0	0	535	40	5	
1	0	0	0	0	514	191	0	508	39	5	
2	0	0	0	0	492	1022	0	471	39	5	
3	0	0	0	0	515	1022	0	486	39	5	
4	0	0	0	0	505	1022	0	473	40	5	
5	0	0	0	0	498	1022	0	470	40	5	
6	0	0	0	0	509	1022	0	496	39	5	
7	0	0	0	0	509	1022	0	514	40	5	
8	0	0	0	0	510	1022	0	557	40	5	
9	0	0	0	0	500	1022	0	482	39	5	
10	0	0	0	0	505	1022	0	482	39	5	
11	0	0	0	0	513	1022	0	511	39	5	
12	0	0	0	0	509	1022	0	565	40	5	
13	0	0	0	0	510	993	0	556	40	5	
14	0	0	0	0	505	600	0	525	39	5	
15	0	0	0	0	506	0	0	473	39	5	
0	0	0	0	0	507	0	0	479	40	5	
1	0	0	0	0	505	0	0	492	39	5	
2	0	0	0	0	506	0	0	481	39	5	
3	0	0	0	0	506	0	0	525	39	5	
4	0	0	0	0	505	0	0	505	40	5	
5	0	0	0	0	504	0	0	507	39	5	
6	0	0	0	0	507	0	0	514	39	5	
7	0	0	0	0	509	0	0	501	39	5	
8	0	0	0	0	504	0	0	545	40	5	
9	0	0	0	0	505	0	0	528	39	5	
10	0	0	0	0	507	121	0	525	39	5	
11	0	0	0	0	505	728	0	534	39	5	
12	0	0	0	0	508	1022	0	501	40	5	
13	0	0	0	0	507	1022	0	506	40	5	
14	0	0	0	0	504	1022	0	527	39	5	
15	0	0	0	0	506	1022	0	514	39	5	
0	0	0	0	0	506	1022	0	540	40	5	
1	0	0	0	0	505	1022	0	508	39	5	
2	0	0	0	0	507	1022	0	515	39	5	
3	0	0	0	0	504	1022	0	579	39	5	
4	0	0	0	0	500	1022	0	534	40	5	
5	0	0	0	0	508	1022	0	578	39	5	
6	0	0	0	0	507	985	0	569	39	5	
7	0	0	0	0	497	551	0	565	39	5	
8	0	0	0	0	508	0	0	570	40	5	
9	0	0	0	0	504	0	0	540	39	5	
10	0	0	0	0	507	0	0	537	39	5	
11	0	0	0	0	494	0	0	562	39	5	
12	0	0	0	0	508	0	0	569	40	5	
13	0	0	0	0	504	0	0	550	39	5	
14	0	0	0	0	503	0	0	553	39	5	
15	0	0	0	0	505	0	0	517	39	5	
0	0	0	0	0	504	0	0	446	40	5	
1	0	0	0	0	507	0	0	428	39	5	
2	0	0	0	0	505	11	0	452	39	5	
3	0	0	0	0	507	266	0	470	40	5	
4	0	0	0	0	505	1022	0	521	40	5	
5	0	0	0	0	505	1022	0	463	39	5	
6	0	0	0	0	499	1022	0	469	39	5	
7	0	0	0	0	505	1022	0	475	39	5	
8	0	0	0	0	501	1022	0	416	40	5	
9	0	0	0	0	508	1022	0	411	39	5	
10	0	0	0	0	503	1022	0	444	39	5	
11	0	0	0	0	505	1022	0	435	39	5	
12	0	0	0	0	500	1022	0	457	40	5	
13	0	0	0	0	508	1022	0	511	39	4	
14	0	0	0	0	500	1022	0	562	39	4	
15	0	0	0	0	511	1021	0	540	39	4	
0	0	0	0	0	502	740	0	542	40	4	
1	0	0	0	0	510	0	0	554	39	4	
2	0	0	0	0	488	0	0	525	39	4	
3	0	0	0	0	507	0	0	511	40	4	
4	0	0	0	0	499	0	0	519	39	4	
5	0	0	0	0	495	0	0	547	40	4	
6	0	0	0	0	511	0	0	575	39	4	
7	0	0	0	0	511	0	0	504	39	4	
8	0	0	0	0	494	0	0	502	40	4	
9	0	0	0	0	487	0	0	535	39	4	
10	0	0	0	0	497	0	0	515	39	4	
11	0	0	0	0	517	0	0	499	39	4	
12	0	0	0	0	521	0	0	528	40	4	
13	0	0	0	0	520	60	0	454	39	4	
14	0	0	0	0	511	172	0	455	39	4	
15	0	0	0	0	508	378	0	483	39	4	
0	0	0	0	0	496	726	0	465	40	4	
1	0	0	0	0	513	1022	0	474	39	4	
2	0	0	0	0	504	1022	0	503	39	4	
3	0	0	0	0	509	1022	0	477	39	4	
4	0	0	0	0	498	1022	0	476	40	4	
5	0	0	0	0	515	1022	0	491	39	4	
6	0	0	0	0	494	1008	0	480	39	4	
7	0	0	0	0	505	641	0	515	39	4	
8	0	0	0	0	499	0	0	500	40	4	
9	0	0	0	0	512	0	0	493	39	4	
10	0	0	0	0	495	0	0	501	39	4	
11	0	0	0	0	516	0	0	476	39	4	
12	0	0	0	0	499	0	0	473	40	4	
13	0	0	0	0	507	0	0	494	40	4	
14	0	0	0	0	509	0	0	554	39	4	
15	0	0	0	0	513	0	0	566	40	4	
